-1.248966404000015018e+00,-4.067065225796849814e-01,-7.997719615888743760e+01,7.703962978035703202e+01,7.939013779975593366e+01,7.879532787798439131e+01,1.286480361501295420e+02,1.370156289634504674e+02,1.190352623456291496e+02,7.826209439924912203e+01,6.297623511224934134e+01,8.545947128598034226e+01
-2.249455459424608783e+00,-5.415241888858675079e-01,-1.074864346112330651e+02,9.795158492528045713e+01,1.018692631532789505e+02,9.423725147669890134e+01,1.610824221812577548e+02,1.741532144546178245e+02,1.638000425548613066e+02,1.310905746072505735e+02,1.123680324927362904e+02,1.263955507344908966e+02
-3.779170078852571724e+00,-6.169860184986339924e-01,-1.203604536779648839e+02,1.075048731580172330e+02,1.105787838884973553e+02,1.014687584960835949e+02,1.682678127702511688e+02,1.846370841270767471e+02,1.769385986516337823e+02,1.473313003817328593e+02,1.271353105961655103e+02,1.375859437315655498e+02
-5.203547320596631387e+00,-6.623030426786770120e-01,-1.318836289679775291e+02,1.218944084960168226e+02,1.212692817076550114e+02,1.180584888278866202e+02,1.702868592458636670e+02,1.786429802902634378e+02,1.623161413879372788e+02,1.309401448019762881e+02,1.184077560150749520e+02,1.390924818414452204e+02
-4.389802188413452377e+00,-6.029871175754919488e-01,-1.239577837797218649e+02,1.185451694224603898e+02,1.166161024443155583e+02,1.184823651565506708e+02,1.588001910867473896e+02,1.628741270347306909e+02,1.403060940174865152e+02,1.027304761658901526e+02,9.234103457016732364e+01,1.202419403531076370e+02
-1.323345247491283239e+00,-5.937784427815503419e-01,-1.161758114193106195e+02,1.218151613850967436e+02,1.200872578750286976e+02,1.239273238800621755e+02,1.655208350555656693e+02,1.626900004427167516e+02,1.295145761436202179e+02,8.259506404409100355e+01,7.742654232880352083e+01,1.183815216062131412e+02
1.610036642967084930e+00,-5.216821987855251308e-01,-1.126098176720975914e+02,1.230245085335667170e+02,1.222653602412504483e+02,1.239570064238961891e+02,1.765445974693922722e+02,1.637612966029516315e+02,1.266370397123989591e+02,8.318500742987713181e+01,8.553334349192188313e+01,1.327417182901696435e+02
1.573324179655978927e+00,-5.412686762421491382e-01,-1.207065580304939090e+02,1.286953629572452371e+02,1.286238241956133095e+02,1.291011014954747509e+02,1.798036488048238652e+02,1.522576149898979736e+02,1.223315974932985739e+02,1.043779432115919690e+02,1.200957787046550180e+02,1.613661624430063171e+02
-5.176154935161880744e-03,-5.615458349502990831e-01,-1.306443280398030993e+02,1.324545079709799040e+02,1.329086325303798048e+02,1.325397419329387674e+02,1.786631979709307529e+02,1.446018116441900645e+02,1.201650920211621525e+02,1.168680408006899683e+02,1.389107629778613386e+02,1.749491425172379309e+02
-7.991670031608119062e-01,-5.686058703327321329e-01,-1.315508031675781240e+02,1.316141135337049946e+02,1.316383528690379023e+02,1.317196668198472480e+02,1.721332576783511854e+02,1.444470927812234606e+02,1.183423631360261652e+02,1.070704719725860059e+02,1.238324421717845212e+02,1.604881352784714181e+02
-1.516071873536150472e+00,-6.027493696038181969e-01,-1.352981962188715386e+02,1.340211814883203942e+02,1.335562776209775677e+02,1.341172424122865152e+02,1.657066983490475423e+02,1.401311275496918825e+02,1.145626294206936535e+02,1.023902318824667361e+02,1.174201072258302077e+02,1.532852833151742402e+02
-9.131011422420995949e-01,-6.048114166387543733e-01,-1.367964836831067714e+02,1.362147680892206267e+02,1.360005351229663404e+02,1.363493726304646998e+02,1.568610748240325563e+02,1.101912255390642770e+02,9.639454635701143559e+01,1.229272504379155180e+02,1.572495359633495298e+02,1.827457075778970932e+02
-6.149969537054320590e-01,-6.178051673685799328e-01,-1.388713177581050218e+02,1.381673566838338729e+02,1.381119788978532767e+02,1.379157223287839429e+02,1.504261683186389291e+02,8.526050530911467717e+01,8.308248988254938183e+01,1.452679422757706220e+02,1.969597731865396213e+02,2.118459345041513302e+02
-8.730695708028490820e-02,-2.963531801476949612e-01,-8.504458649672692161e+01,8.504228796075820185e+01,8.533328034758639546e+01,8.481002430775664891e+01,9.696524607425926945e+01,5.041619744723304564e+01,5.232520135120973492e+01,1.015887539040628837e+02,1.392326963294662221e+02,1.456789075757908449e+02
2.841667538224645906e-01,-5.166222304625600614e-03,-2.850657538841100447e+01,2.915945159604970272e+01,2.936356642841780484e+01,2.949073448824782773e+01,3.402467430094321799e+01,1.400201794908167585e+01,1.545790780451612179e+01,3.704391207649906903e+01,5.338252156460865194e+01,5.540954221556285120e+01
5.106980848446447396e-01,1.727589514486559397e-01,1.106592265990590818e+01,-9.947611514084787387e+00,-9.885047189028227876e+00,-9.271421123383870366e+00,-1.159587045559458574e+01,-1.194964305969879703e+01,-1.143809954969150233e+01,-1.087761171049601927e+01,-1.047947067053547343e+01,-1.118773163969183315e+01
3.138698901122889406e-01,8.062989816219967576e-02,1.274432465408789383e+01,-1.231312825878313078e+01,-1.230370115733407665e+01,-1.205117987295473547e+01,-1.569885556865106224e+01,-1.446597487390306469e+01,-1.298183197909952469e+01,-1.223606563912578160e+01,-1.286529115545970647e+01,-1.500231304612277938e+01
2.489690486115362367e-01,5.650629974731369298e-02,1.390464019718135980e+01,-1.374018081202705233e+01,-1.372564734835010114e+01,-1.359459176822937287e+01,-1.811384048374205591e+01,-1.634843206084134692e+01,-1.441569320632114071e+01,-1.337064930232812543e+01,-1.427590169812046383e+01,-1.706634590371237437e+01
2.173215564918670184e-01,2.108307538184406305e-02,1.454172853863864745e+01,-1.456878272429218413e+01,-1.452749122683893113e+01,-1.442673812823204926e+01,-1.940112797029722103e+01,-1.734882577655993785e+01,-1.516958609545163661e+01,-1.395488288454166437e+01,-1.499961938729771305e+01,-1.814327209507515803e+01
1.962779592846293220e-01,-2.078788290002153705e-02,1.481556359212406093e+01,-1.490922714421044581e+01,-1.486806562543268129e+01,-1.476099163032948347e+01,-1.993738130253574070e+01,-1.776217850033496859e+01,-1.547219124022684156e+01,-1.416973959048520015e+01,-1.526697278272915170e+01,-1.856962502882772981e+01
1.901761164897801670e-01,-1.069087889738367103e-01,1.493882312003361257e+01,-1.508299264328958245e+01,-1.502508789519558796e+01,-1.489556463453481960e+01,-2.014785473769427782e+01,-1.789658348195156279e+01,-1.555884520478790733e+01,-1.423540923301818140e+01,-1.536795664212636048e+01,-1.874777946475834511e+01
1.874488529273815596e-01,-5.838081653459981091e-02,1.508343264865095001e+01,-1.522957006340464581e+01,-1.512638492041731020e+01,-1.498710959587259239e+01,-2.030408110504345132e+01,-1.801713534916842363e+01,-1.564788339615632395e+01,-1.427927345204845011e+01,-1.542565888215654901e+01,-1.886674452642014543e+01
1.817132401010221887e-01,1.931742466925012724e-02,1.522025712024211686e+01,-1.530788006833230952e+01,-1.521936812904852587e+01,-1.505188501387841526e+01,-2.036184421342915485e+01,-1.799236150783431043e+01,-1.560675095928785083e+01,-1.428262712771742393e+01,-1.548951464195437566e+01,-1.895838086170910586e+01
1.767792240012079352e-01,5.381835272636892320e-02,1.521925537914259863e+01,-1.525440081009146454e+01,-1.521314462005555868e+01,-1.502390759610697479e+01,-2.030887663602688775e+01,-1.792702530390808846e+01,-1.553603440795940571e+01,-1.422266589722792496e+01,-1.543379664381517458e+01,-1.889542481974259047e+01
1.773908672307081824e-01,-6.231105629711619631e-02,1.497632994091785541e+01,-1.501771779139353491e+01,-1.502483726028517452e+01,-1.483083172531053506e+01,-2.007887034934512727e+01,-1.776863479845189886e+01,-1.539677710318158432e+01,-1.405430642734279267e+01,-1.520886890432540817e+01,-1.862256804153839340e+01
1.737434452251890304e-01,-5.971795741616425790e-02,1.474966515900686304e+01,-1.479774524021745385e+01,-1.480477947380237147e+01,-1.464035187343502820e+01,-1.991512983332370723e+01,-1.772036298170203850e+01,-1.536089423266643195e+01,-1.390042615255966219e+01,-1.496470907570437170e+01,-1.835549321524200295e+01
1.622987468137171430e-01,3.799804318783850388e-02,1.473294901248990740e+01,-1.464572210977810229e+01,-1.468957111293763873e+01,-1.454372044931876040e+01,-1.978803137465046902e+01,-1.761827230567863012e+01,-1.528620674958310843e+01,-1.383853049892601739e+01,-1.489533442049953216e+01,-1.825497247967609482e+01
1.544211522995370123e-01,1.226340148790215911e-01,1.498461532755756842e+01,-1.480947172779562848e+01,-1.487323204595344706e+01,-1.471858530634056983e+01,-1.990359267543156108e+01,-1.760326631059762192e+01,-1.527222114944130027e+01,-1.396823165755121288e+01,-1.513099383116291463e+01,-1.850562376514520935e+01
1.539936163763113708e-01,2.712830987233838531e-02,1.486531799249860164e+01,-1.473668709082699735e+01,-1.480673912448539831e+01,-1.464125873104330999e+01,-1.980563801922713552e+01,-1.752067879217596058e+01,-1.520408190286993211e+01,-1.392224814770155916e+01,-1.506927345102925742e+01,-1.842203728049005917e+01
1.493588367885176904e-01,-2.578451587159202862e-02,1.464314021032071444e+01,-1.462543745857405142e+01,-1.465637783107369962e+01,-1.451283507596502886e+01,-1.970224392384923462e+01,-1.750662368834403182e+01,-1.519060864649235931e+01,-1.381285184539446576e+01,-1.488136608178501064e+01,-1.822520548310300725e+01
1.419024212250632466e-01,-7.960342274697196352e-02,1.446958057341955239e+01,-1.452962557655058440e+01,-1.451413364630318981e+01,-1.440046455543745374e+01,-1.957890576352707157e+01,-1.742495136578314785e+01,-1.511910748618245570e+01,-1.371137257240523333e+01,-1.474897303220726386e+01,-1.807774918974041967e+01
1.506170846649296235e-01,-7.477570528154076079e-02,1.446930663814835505e+01,-1.449900017691240883e+01,-1.446158306671280869e+01,-1.435901169595231863e+01,-1.948608945400837911e+01,-1.730624923781461177e+01,-1.501699108776472258e+01,-1.366096883153994135e+01,-1.472460876091084714e+01,-1.803358915321845046e+01
1.601539292004101611e-01,-7.341369059177205170e-02,1.433648921446873814e+01,-1.435047060624527404e+01,-1.431567081636829819e+01,-1.420072889869254595e+01,-1.930691229978215517e+01,-1.716809313138681503e+01,-1.488743638192664420e+01,-1.350969310286366998e+01,-1.454596269132446906e+01,-1.782443381996356280e+01
1.594015268666890695e-01,1.207458922841697646e-02,1.445993786301820627e+01,-1.444872612436385317e+01,-1.440397216013810322e+01,-1.427548953066600923e+01,-1.934710892584468311e+01,-1.715493248994866704e+01,-1.486668549383971261e+01,-1.352424170983795015e+01,-1.460341683104133814e+01,-1.789621200047985994e+01
1.605086846782718402e-01,-7.995749892526715641e-03,1.454528170278907950e+01,-1.456074606760909873e+01,-1.451351134121355635e+01,-1.435847167520367407e+01,-1.938173198510191497e+01,-1.709993565988614250e+01,-1.481290058661046594e+01,-1.355506951555658723e+01,-1.470560647015149414e+01,-1.801167246605477246e+01
1.659396182895606087e-01,1.686817807982299300e-02,1.446235671409433543e+01,-1.443046595999280157e+01,-1.441062132189604661e+01,-1.425107540417563357e+01,-1.925796807512552178e+01,-1.702226516006978940e+01,-1.475465169863724135e+01,-1.347752763449824442e+01,-1.459237949574448834e+01,-1.787470518154338350e+01
1.679195717489858630e-01,1.417213125335869961e-02,1.418561417908166433e+01,-1.409712371403625752e+01,-1.413103014591457907e+01,-1.397470417740608184e+01,-1.898403992215840930e+01,-1.689448717749791484e+01,-1.465244126427400140e+01,-1.327861193620710800e+01,-1.428448585602610166e+01,-1.750997829961353602e+01
1.524865234999855934e-01,1.264520549993943810e-01,1.432151557042034540e+01,-1.409655439428094148e+01,-1.418853867544120817e+01,-1.404011902375957099e+01,-1.896306458923139715e+01,-1.679516192777590788e+01,-1.457380698960924192e+01,-1.331136767942154719e+01,-1.439206177893424687e+01,-1.760490370142549921e+01
1.382100109037739388e-01,1.293534427799845066e-01,1.425075342265132505e+01,-1.403409823227113762e+01,-1.413059670672695667e+01,-1.399884485328683503e+01,-1.887850961239903214e+01,-1.670229873788932196e+01,-1.449421240538554656e+01,-1.326057810736060993e+01,-1.435542545385410307e+01,-1.755121075634711403e+01
1.363579864750035231e-01,1.108531849555715043e-01,1.405597991422032678e+01,-1.398560249895245633e+01,-1.403450661449764958e+01,-1.391902884302559684e+01,-1.884712781646752333e+01,-1.672102522616672005e+01,-1.450391508059976253e+01,-1.319623660420961464e+01,-1.424241387491343858e+01,-1.744341183250799787e+01
1.351050532960512696e-01,1.211601009137370788e-01,1.383381718028099172e+01,-1.386270119547907242e+01,-1.386931895493720113e+01,-1.377698882481511156e+01,-1.875793067643356338e+01,-1.673130856542939782e+01,-1.451147182724115936e+01,-1.309639135180451675e+01,-1.405759386892123963e+01,-1.725127427168677130e+01
1.296126524228480292e-01,2.002961091989599041e-01,1.397332936917840129e+01,-1.394880134498686530e+01,-1.396189379352930082e+01,-1.387239865920022730e+01,-1.881541252472215220e+01,-1.670537132951906045e+01,-1.449294515617040169e+01,-1.317616839469131307e+01,-1.420897669502223515e+01,-1.741036708358020135e+01
1.356747284560263500e-01,1.836505290920416034e-01,1.385727163780624238e+01,-1.379298395293439228e+01,-1.382068833560168741e+01,-1.372935981166218866e+01,-1.865312984337918323e+01,-1.660203329507558223e+01,-1.440449509103167003e+01,-1.305834905480871200e+01,-1.404496649476921100e+01,-1.721873444053375124e+01
1.570107709641502813e-01,1.581887412432863016e-01,1.375501386752162070e+01,-1.358530673819694101e+01,-1.368136524064359527e+01,-1.355498034263112395e+01,-1.840609534336266506e+01,-1.636678573692027427e+01,-1.419643752683719207e+01,-1.287728737421699776e+01,-1.384713581128992388e+01,-1.697616222015924237e+01
1.655578575202781844e-01,2.005404239008666822e-01,1.391952758510212007e+01,-1.362243855599209930e+01,-1.377923302045981835e+01,-1.361279062883499513e+01,-1.837211247330893116e+01,-1.623259851874743376e+01,-1.407097975182495730e+01,-1.286559236594415623e+01,-1.391464286941151229e+01,-1.703355883983394392e+01
1.579289616960640741e-01,1.383914517980215919e-01,1.397629462619661744e+01,-1.371287691522991103e+01,-1.386047865050979411e+01,-1.367911786072254365e+01,-1.839244908895785002e+01,-1.617358994595197430e+01,-1.400978334109527168e+01,-1.287835061051346131e+01,-1.399523173884286820e+01,-1.711916884033070474e+01
1.315411165656769077e-01,3.387676816276119496e-02,1.369383374212066151e+01,-1.353446524414665575e+01,-1.362530093157835864e+01,-1.348515464610829717e+01,-1.823888403762089183e+01,-1.614812201049546658e+01,-1.399729952332665839e+01,-1.276409384030954719e+01,-1.379429517239001335e+01,-1.689265700863643360e+01
1.080210391229348144e-01,3.755644082245646054e-02,1.344696123952711275e+01,-1.327494438827067746e+01,-1.335406591195622639e+01,-1.325801137178717859e+01,-1.802719959447822973e+01,-1.607434547095747845e+01,-1.394975277312413731e+01,-1.262876048866630185e+01,-1.356428709750112560e+01,-1.662418379742252128e+01
9.006178991967717096e-02,1.808797844224750984e-01,1.360809586442439922e+01,-1.330360831983174918e+01,-1.339154093444045301e+01,-1.332211174744119120e+01,-1.804516636096214555e+01,-1.605591238353544981e+01,-1.394381821530968857e+01,-1.268657101233377915e+01,-1.366816326893803968e+01,-1.672804411021351356e+01
9.555363448525611147e-02,2.122715425642538456e-01,1.366422266071453961e+01,-1.329424876798080213e+01,-1.338682560849715308e+01,-1.331603252642754143e+01,-1.797839811589197012e+01,-1.593822922794199748e+01,-1.384035527548435596e+01,-1.265485508526968239e+01,-1.368306777031792620e+01,-1.673080666217127188e+01
1.177492389638543635e-01,1.991532853843922535e-01,1.364624890362928511e+01,-1.326075461722886040e+01,-1.336781767788907516e+01,-1.327767964324444705e+01,-1.788751087586053856e+01,-1.579537038477381472e+01,-1.371232530157382712e+01,-1.258741303961585878e+01,-1.365551229063007277e+01,-1.668469713203460714e+01
1.431173774327739734e-01,1.811774537108347127e-01,1.345857864448439400e+01,-1.316440321894684651e+01,-1.325543740278961735e+01,-1.315714163688052629e+01,-1.780301415924105157e+01,-1.578668450685199609e+01,-1.369970387831448910e+01,-1.247883678844343258e+01,-1.347514537760019770e+01,-1.649309637334651057e+01
1.497235082661234618e-01,2.183453066526234165e-01,1.338490380194760476e+01,-1.315003256138127163e+01,-1.322149858898290375e+01,-1.313369549494727018e+01,-1.780347158323526457e+01,-1.583243668472871235e+01,-1.374216236126699364e+01,-1.246694606752220302e+01,-1.342352014629375923e+01,-1.644023137130456291e+01
1.305163633613559693e-01,1.202413941383750906e-01,1.312996903729057863e+01,-1.300518313900866474e+01,-1.305785337919567368e+01,-1.298160209646148822e+01,-1.764898399460305711e+01,-1.574248361440075428e+01,-1.366462962305167039e+01,-1.236400267919769291e+01,-1.327780799699808334e+01,-1.626813280270705775e+01
1.243077406748294145e-01,-5.521941700156662858e-02,1.293001367827613457e+01,-1.293762255334789657e+01,-1.297795780345406946e+01,-1.288029561157276426e+01,-1.749650944519504492e+01,-1.557991439849640258e+01,-1.351274237685919033e+01,-1.225115446813338593e+01,-1.317693915812597005e+01,-1.614659014800854209e+01
1.331962872589437241e-01,-1.314868016690975416e-01,1.289344174641901475e+01,-1.297821321253568883e+01,-1.300334086104066245e+01,-1.286535059266346792e+01,-1.744406556730342217e+01,-1.547912656831172384e+01,-1.341064223909842212e+01,-1.219722630440583444e+01,-1.315885777571629589e+01,-1.612715848950392328e+01
1.527240353121150918e-01,-4.944294173327157260e-02,1.315349002102298215e+01,-1.321267224707529842e+01,-1.322129935454656824e+01,-1.304600674579189068e+01,-1.759424578789518634e+01,-1.550243689323008489e+01,-1.342805684988530857e+01,-1.232038081003097929e+01,-1.337644676923723885e+01,-1.636911041614809648e+01
1.543862895727464712e-01,5.761943968469251942e-02,1.308353837956864929e+01,-1.310526353711460779e+01,-1.311595353358630689e+01,-1.295041199463002535e+01,-1.748320396143978073e+01,-1.542969527967584931e+01,-1.335667798871566170e+01,-1.219696548936796887e+01,-1.321595101765940328e+01,-1.620269105763988193e+01
1.539906095400973562e-01,1.338473493690365279e-01,1.297987096057509682e+01,-1.292328629187061573e+01,-1.296745875753651056e+01,-1.282906049372066448e+01,-1.732047539355606602e+01,-1.531399378199613892e+01,-1.325477216541408154e+01,-1.205823156650506789e+01,-1.303923973242581091e+01,-1.600263904391155023e+01
1.571569270517193528e-01,1.997444168403152975e-01,1.282190962885516683e+01,-1.258623266794571549e+01,-1.270374238799099587e+01,-1.260035344533613078e+01,-1.702568396921455829e+01,-1.510726599603953879e+01,-1.308662194970187009e+01,-1.186295048922425899e+01,-1.278407064698350482e+01,-1.568410362193606034e+01
1.598262280893532061e-01,2.202491326295610286e-01,1.274314815921583843e+01,-1.235301736684284357e+01,-1.250253814091422733e+01,-1.242887278865858747e+01,-1.682764534106276599e+01,-1.498058783315422104e+01,-1.300972857734587151e+01,-1.180282868433523191e+01,-1.268653766651219605e+01,-1.552140798922931886e+01
1.600415512774512328e-01,1.287689604322485026e-01,1.256404551571872652e+01,-1.226178647976456659e+01,-1.236578815672612564e+01,-1.229191045241530844e+01,-1.671747671293440618e+01,-1.491665533282787948e+01,-1.296249546505628913e+01,-1.173259965561699225e+01,-1.258039050398718750e+01,-1.539650349454201361e+01
1.527656488428859038e-01,2.929976151341273649e-02,1.273380155520441726e+01,-1.265296275651351721e+01,-1.266698987903574825e+01,-1.255369358298393578e+01,-1.698734481041359246e+01,-1.499623121819368698e+01,-1.301250843050657480e+01,-1.192337500523121641e+01,-1.291869390265899753e+01,-1.579940669430766675e+01
1.452824703727422229e-01,1.487641447250798166e-02,1.271817142047279958e+01,-1.277265038430086896e+01,-1.273381947794228530e+01,-1.260570540109172555e+01,-1.705055404597146662e+01,-1.502722181632749177e+01,-1.302046710365734938e+01,-1.192968196002619763e+01,-1.294745232248455835e+01,-1.585694736415890382e+01
1.427677125632944577e-01,5.604962969538362927e-02,1.257801429049095887e+01,-1.261372737730816240e+01,-1.257854518217317796e+01,-1.246352675956519285e+01,-1.691355056976604487e+01,-1.497887103407256326e+01,-1.298720640618027211e+01,-1.183400917025049104e+01,-1.278883996818525581e+01,-1.567054641205387888e+01
1.429066624035322253e-01,3.565746371340339227e-02,1.232592588960555346e+01,-1.237199833727135712e+01,-1.235305819576937836e+01,-1.225262944514343388e+01,-1.669846898445655015e+01,-1.486103202791435685e+01,-1.288605888186751436e+01,-1.165658012727397441e+01,-1.253455422537027708e+01,-1.538407524642034652e+01
1.442084604227118483e-01,1.569064948931209180e-02,1.235414723300961981e+01,-1.234034170197593738e+01,-1.234477631808339737e+01,-1.225237518803658077e+01,-1.664260860186263358e+01,-1.476666260521952623e+01,-1.280944619245544125e+01,-1.165098695765041548e+01,-1.256969012733462066e+01,-1.540122986173128261e+01
1.381825757517821662e-01,3.263441932749278074e-02,1.240592106593499011e+01,-1.226334444365802057e+01,-1.231938147821727370e+01,-1.223923952020509276e+01,-1.656306095338646855e+01,-1.466794612548330079e+01,-1.273087838489192691e+01,-1.164175236993134277e+01,-1.259120135575253663e+01,-1.539711354365258345e+01
1.374357368169697446e-01,2.104984090338724023e-02,1.237817462844082073e+01,-1.217434852950385782e+01,-1.225070211740136905e+01,-1.219201643311543926e+01,-1.649276294888038663e+01,-1.462433320806380621e+01,-1.270033642824727416e+01,-1.161497584010290751e+01,-1.255292411095762972e+01,-1.533926643264816292e+01
1.392703801389881813e-01,-4.904384393067862113e-02,1.218318056392563520e+01,-1.208044841774572475e+01,-1.212767434339469474e+01,-1.209026398677261049e+01,-1.642603880040077158e+01,-1.461008088482209288e+01,-1.267381413502022269e+01,-1.150816567107073851e+01,-1.239886576689448994e+01,-1.519124787447189462e+01
1.463324308814796249e-01,-3.882219208856230175e-03,1.213044061102573856e+01,-1.191243400082801251e+01,-1.197799500794982919e+01,-1.196431570782842613e+01,-1.628778488458389617e+01,-1.451451685886737941e+01,-1.260683559093753381e+01,-1.144039160545112210e+01,-1.230393600301449020e+01,-1.505760989092098967e+01
1.411673031385570765e-01,1.417601129725791775e-01,1.219446558003099845e+01,-1.170301533405777761e+01,-1.184210747463497704e+01,-1.185554092632750312e+01,-1.605832864209164512e+01,-1.427152313549037821e+01,-1.241016084673122144e+01,-1.133295507732541729e+01,-1.222137281751920668e+01,-1.491774473393448197e+01
1.368625102395941706e-01,2.396784725158929152e-01,1.223004350329116363e+01,-1.166573182142343335e+01,-1.181539600582059713e+01,-1.183420646671833154e+01,-1.600078267595158366e+01,-1.421937036531134702e+01,-1.236485223281873580e+01,-1.128958472851714845e+01,-1.217110831837937290e+01,-1.485771158518582880e+01
1.263533925797715174e-01,1.592738947792453619e-01,1.214941958305868930e+01,-1.180163861661633895e+01,-1.188906523408655858e+01,-1.188117801431366161e+01,-1.608580207505394455e+01,-1.426560641461332501e+01,-1.238810080401384006e+01,-1.130158922343367855e+01,-1.220542837579359841e+01,-1.493106259186985518e+01
1.249349908939429987e-01,8.343597652707424039e-02,1.205780680392864035e+01,-1.185294802058531261e+01,-1.190899746512160107e+01,-1.186546215650010794e+01,-1.610074400184765153e+01,-1.426437562591986463e+01,-1.238457095019227872e+01,-1.131221897289741030e+01,-1.222778174833960918e+01,-1.496310978293897875e+01
1.284050417014479528e-01,9.229744969930675502e-02,1.187668886786400435e+01,-1.163246340818724711e+01,-1.172567217073238055e+01,-1.167044173429117215e+01,-1.584315415333401944e+01,-1.406779950502903453e+01,-1.220930425833169508e+01,-1.111314518531631990e+01,-1.198203123475707343e+01,-1.467253918195020290e+01
1.225520236102344285e-01,1.514116783195760263e-01,1.182818870267823286e+01,-1.156462530302213310e+01,-1.167617890144673432e+01,-1.160974846185839837e+01,-1.574658281254900238e+01,-1.400578907458488409e+01,-1.214932069894830136e+01,-1.102557639081598317e+01,-1.186429918994923227e+01,-1.453826640726232711e+01
9.752119782357682176e-02,7.077774186819774105e-02,1.171663683518086785e+01,-1.157104206676252112e+01,-1.164933048132970939e+01,-1.156726742056431512e+01,-1.568494008754310798e+01,-1.395079083691219957e+01,-1.209349665705334509e+01,-1.096497756369796406e+01,-1.180399072057601195e+01,-1.447502168748437335e+01
8.616308334358491194e-02,4.302894698300907539e-02,1.191486413225703167e+01,-1.182693726986988025e+01,-1.188509439679824986e+01,-1.176223832393939794e+01,-1.582429795507125370e+01,-1.391077620276095139e+01,-1.205397856454473349e+01,-1.110534433857038650e+01,-1.209059256805078242e+01,-1.478354776027916095e+01
9.878259927145016661e-02,9.612689282443009908e-02,1.186403046604947953e+01,-1.173156760741969862e+01,-1.180247597934557291e+01,-1.167204728547962134e+01,-1.570709999823110259e+01,-1.381706293173638045e+01,-1.197654855321992606e+01,-1.102454068738433968e+01,-1.198917577583540250e+01,-1.465274143229016879e+01
1.127586670713039974e-01,1.715664796110214496e-01,1.171048787947557912e+01,-1.155709774157108960e+01,-1.162294142359727722e+01,-1.152030684850883446e+01,-1.558422231927928081e+01,-1.380568665402753403e+01,-1.197834563617214343e+01,-1.092791895950275816e+01,-1.180156114174879534e+01,-1.443904387743460127e+01
1.206697382437693644e-01,1.149082017719299520e-01,1.132883029107455286e+01,-1.125933553463609016e+01,-1.128575642329792039e+01,-1.122387511718575048e+01,-1.534122718698574772e+01,-1.376940318428597365e+01,-1.195339073973628885e+01,-1.071213928038416618e+01,-1.142391805178785802e+01,-1.402415550873868355e+01
1.255310782853510387e-01,5.222672385073301449e-02,1.143664970259094993e+01,-1.139436959628198487e+01,-1.140599939703876409e+01,-1.133382703835213334e+01,-1.537651641244006839e+01,-1.367212771034044572e+01,-1.187165041402655596e+01,-1.077392845039838676e+01,-1.159764183535885884e+01,-1.420325650581884602e+01
1.240820181559619817e-01,4.663993085190687449e-02,1.151357084682274312e+01,-1.145709204048362650e+01,-1.147450714451656317e+01,-1.138070174828303216e+01,-1.537069939991091161e+01,-1.359096138833704792e+01,-1.180209593192783935e+01,-1.079272932276269437e+01,-1.168092433462367730e+01,-1.428266087353144798e+01
1.113175753950461644e-01,6.820967239426134476e-02,1.146879764466377694e+01,-1.139923228475824502e+01,-1.144079903306743695e+01,-1.133479541442139293e+01,-1.529583317216077987e+01,-1.350543575942934993e+01,-1.172326259025321882e+01,-1.073837139917243633e+01,-1.163954289964804367e+01,-1.423396193462462023e+01
1.018433589066174427e-01,1.097565704621717986e-01,1.125127787700520621e+01,-1.119870210494022089e+01,-1.124925418369084618e+01,-1.115337702324669422e+01,-1.512509995559760512e+01,-1.343529219006125786e+01,-1.164580475470289045e+01,-1.055859816001493812e+01,-1.137431964856617839e+01,-1.395461957846140422e+01
1.066940072930638861e-01,6.023662851782518590e-02,1.124362079804196668e+01,-1.124650842859536226e+01,-1.127412788020153656e+01,-1.117833691922521844e+01,-1.511981747773305962e+01,-1.336644064821617839e+01,-1.156917285289743091e+01,-1.053546441034443149e+01,-1.139731777436193383e+01,-1.398833085491561157e+01
1.225735952460904610e-01,3.794195372636044450e-02,1.126844427807876947e+01,-1.125580225771319043e+01,-1.126338663370339077e+01,-1.117644347237465752e+01,-1.511827507401545212e+01,-1.335332981604397951e+01,-1.156109723751867158e+01,-1.054959166735231513e+01,-1.142186087174083298e+01,-1.400731353190956163e+01
1.336119437688829681e-01,5.948134345199995732e-02,1.125218765909995255e+01,-1.106455357762063940e+01,-1.111284560998470816e+01,-1.105041104532610774e+01,-1.496733491077528022e+01,-1.324878613129961202e+01,-1.150105248231903943e+01,-1.052166523920009489e+01,-1.137780427055977484e+01,-1.390939424412565906e+01
1.307811263037503835e-01,1.022466318201298296e-01,1.112071712404404700e+01,-1.081534966353651406e+01,-1.089181780888292828e+01,-1.087356994175345726e+01,-1.478582625688430774e+01,-1.317683207753784913e+01,-1.145331436756695176e+01,-1.039966792407720675e+01,-1.118631434382060164e+01,-1.367790557711654209e+01
1.092108590040924421e-01,1.127333322792994919e-01,1.105684919171808467e+01,-1.069837102776654980e+01,-1.079090729726938669e+01,-1.080600492197149265e+01,-1.468784534594825786e+01,-1.308934257460433237e+01,-1.137913752137101220e+01,-1.033955166129427283e+01,-1.113770876623628503e+01,-1.361328306233486529e+01
9.947211269413358536e-02,1.667128833390931764e-01,1.106732654831668761e+01,-1.060239552837238541e+01,-1.072132991744349617e+01,-1.075048712193539302e+01,-1.459210645165582321e+01,-1.300643543645144717e+01,-1.132372997111336410e+01,-1.031409107254960134e+01,-1.111748859462959160e+01,-1.356540351720023807e+01
1.000918594028625819e-01,1.834481948863234679e-01,1.107238896788736859e+01,-1.060734825692751571e+01,-1.074140786003982306e+01,-1.074965170664158087e+01,-1.456220451228578661e+01,-1.293870089959092695e+01,-1.126644914599912717e+01,-1.030876101680428292e+01,-1.113894217060992453e+01,-1.358218795523917422e+01
1.164808394959110371e-01,1.726971546573430327e-01,1.096999079768127316e+01,-1.061344621872060934e+01,-1.073124295910794856e+01,-1.071358028772787208e+01,-1.450976951134447113e+01,-1.288753851156853081e+01,-1.119930630823035500e+01,-1.020203452560877011e+01,-1.101087172458364805e+01,-1.346427233004527402e+01
1.224220305583305635e-01,9.929715575441777631e-02,1.083401932840659043e+01,-1.066898398317822760e+01,-1.073241075580457426e+01,-1.069628883910476880e+01,-1.448800852987917409e+01,-1.284619116429282037e+01,-1.113532555296844784e+01,-1.011879758103893678e+01,-1.092772247391730289e+01,-1.340132148032675197e+01
1.309877554539962130e-01,6.541971459993201066e-02,1.080153352281432255e+01,-1.074217154422441389e+01,-1.075647331414067054e+01,-1.070696161833249427e+01,-1.451591384991403544e+01,-1.286860874962101953e+01,-1.115220637786034530e+01,-1.013639540375946702e+01,-1.094438591656798643e+01,-1.342519098931586896e+01
1.298074009561623887e-01,2.100562119172588726e-02,1.072522489389069378e+01,-1.073125220085273135e+01,-1.072507253469565214e+01,-1.066372858577609328e+01,-1.449184105523115029e+01,-1.285038664123850261e+01,-1.113815281380297506e+01,-1.013164890408860153e+01,-1.093579556952524179e+01,-1.341504573478820106e+01
1.254163036229188899e-01,7.678887943835577268e-02,1.062140951294328950e+01,-1.044014663173997270e+01,-1.048598676273172003e+01,-1.044107944902687990e+01,-1.421467129993751932e+01,-1.266346263241672787e+01,-1.099729797859736280e+01,-9.995911098318952526e+00,-1.074729046128160981e+01,-1.315554957262026470e+01
1.211418380381281690e-01,3.039928876077291342e-02,1.056891764915634546e+01,-1.034164238582389217e+01,-1.038535882695680712e+01,-1.035021213794819772e+01,-1.406321104196383409e+01,-1.251313548482635518e+01,-1.087120676540274999e+01,-9.912962763029531388e+00,-1.067443905497461465e+01,-1.305201579803001977e+01
1.130856673665251444e-01,2.530641264308064464e-02,1.066332034283103525e+01,-1.044190936797190261e+01,-1.047159997853513147e+01,-1.043036588701414047e+01,-1.409922252822146405e+01,-1.246439248729870108e+01,-1.082576221441057740e+01,-9.952665040071829949e+00,-1.078704815843258835e+01,-1.317152232640814269e+01
1.071209700123417763e-01,8.195261522344288174e-03,1.054720433134475499e+01,-1.039038770573202619e+01,-1.040569807559395699e+01,-1.036289430112793930e+01,-1.403419410359884267e+01,-1.241508648914089186e+01,-1.077753254330586863e+01,-9.877493986086919975e+00,-1.069895907240820065e+01,-1.308013193610043423e+01
1.080207583866253929e-01,8.480395538605223216e-02,1.045111372089771251e+01,-1.024430731804429762e+01,-1.026983508985178872e+01,-1.024116764253068368e+01,-1.391485465527960663e+01,-1.237255901005888070e+01,-1.075127913205832719e+01,-9.799340412999802297e+00,-1.056515936207484252e+01,-1.291265718435449728e+01
1.167124940774899589e-01,1.117673740506244240e-01,1.029645414517033331e+01,-1.014206085767269272e+01,-1.014387867707242741e+01,-1.012229569097353377e+01,-1.382067142656375935e+01,-1.236834326066230894e+01,-1.074032187345165923e+01,-9.684739837644457339e+00,-1.037024310295734786e+01,-1.271011843361022109e+01
1.130588107629009187e-01,1.155936037665433735e-01,1.027663023961754973e+01,-1.011221051219845712e+01,-1.012092029490336387e+01,-1.008014212972886980e+01,-1.373787374122758109e+01,-1.226918062880692339e+01,-1.065316649429995088e+01,-9.637571452174816145e+00,-1.034238948849702489e+01,-1.266610564639415060e+01
1.079844050091357532e-01,8.109172624769711568e-02,1.033355510459068149e+01,-1.021208403667087339e+01,-1.023145791734345700e+01,-1.013665037300204830e+01,-1.375052782487955838e+01,-1.219175183777602101e+01,-1.057419802521194008e+01,-9.653454533644746149e+00,-1.042936255994579220e+01,-1.275762017633825174e+01
1.009992130164190094e-01,8.498275745996486386e-03,1.039318801253649127e+01,-1.037470835337108177e+01,-1.038451409081049093e+01,-1.024467158854121784e+01,-1.379961437534192470e+01,-1.211570487572944366e+01,-1.048777035489207421e+01,-9.677613194482420411e+00,-1.054590440889363734e+01,-1.289314985573826533e+01
1.042302200754511299e-01,-6.487063373046431103e-02,1.020664945759072140e+01,-1.029113114401309836e+01,-1.027812358304824158e+01,-1.013474255338557484e+01,-1.369487605259115881e+01,-1.207934479880551137e+01,-1.045547378974445252e+01,-9.573616824670024172e+00,-1.037800910460470227e+01,-1.271423393538050028e+01
1.047003035687993355e-01,-1.470251418175586577e-01,9.923238112221769214e+00,-1.007055224168176011e+01,-1.003718188220874374e+01,-9.922234400921526642e+00,-1.348570422435812155e+01,-1.199972291034314864e+01,-1.039431342867223051e+01,-9.405517245197511755e+00,-1.010839609551693208e+01,-1.241320225381005393e+01
9.955125391673469437e-02,-1.155159790845523560e-01,9.799929566919272972e+00,-9.887748462453794573e+00,-9.887312314571445881e+00,-9.783352300661039891e+00,-1.331999375328934754e+01,-1.190152306518323044e+01,-1.031489914665163532e+01,-9.286789412306120539e+00,-9.942510708696676858e+00,-1.221525202662876630e+01
8.253464638223684258e-02,-7.730035445417215989e-02,9.930216741136529635e+00,-9.963282591520439269e+00,-9.998472411531789561e+00,-9.877268664268282095e+00,-1.334300832494571587e+01,-1.180370671423420426e+01,-1.022000721513182242e+01,-9.324466459678896868e+00,-1.008557439547269219e+01,-1.236035308842244618e+01
7.691733897464014813e-02,-6.753319796025591959e-02,9.932348346261468564e+00,-9.959819694225647169e+00,-9.997558979653470956e+00,-9.863005411069533324e+00,-1.332904832110469862e+01,-1.178200425685548858e+01,-1.020320067671639919e+01,-9.323291659825866162e+00,-1.009401022468833986e+01,-1.235861375614003954e+01
7.672636217462014407e-02,-8.324994131268959041e-02,9.993371044312109319e+00,-1.008098316958481178e+01,-1.009067849886882584e+01,-9.954751137212982215e+00,-1.343208530361278363e+01,-1.181955703938192492e+01,-1.022776435240962556e+01,-9.393373954113087620e+00,-1.021212972024182264e+01,-1.250185931557476415e+01
8.773244152330528234e-02,2.143374638497785867e-02,9.855411477164711442e+00,-9.756833344538250685e+00,-9.818205778223285662e+00,-9.724766403359062394e+00,-1.314930998492497771e+01,-1.164562878311638094e+01,-1.009303376462872137e+01,-9.199822234453327141e+00,-9.936329593163026885e+00,-1.216781641765410349e+01
1.024817092250225326e-01,1.459277071832861816e-01,9.861145871668554719e+00,-9.555285100918410990e+00,-9.685895710122633062e+00,-9.625669496308939088e+00,-1.297331407670047732e+01,-1.149029916026510101e+01,-9.974499138345901628e+00,-9.107141418614292050e+00,-9.833392620227183301e+00,-1.202121203116629111e+01
1.106658451679776167e-01,1.595363402659595309e-01,9.693283834011568345e+00,-9.421895880279182123e+00,-9.550744710343691324e+00,-9.512450858248197250e+00,-1.287227777607077961e+01,-1.146936379125751593e+01,-9.951852615392676071e+00,-8.991348302647557134e+00,-9.644956635563090686e+00,-1.182596675273895137e+01
8.748353157003252445e-02,-1.329536149645615950e-02,9.581803072679193178e+00,-9.550159390763978351e+00,-9.612814821914364316e+00,-9.575539869430135909e+00,-1.296758467304248974e+01,-1.151609414650513763e+01,-9.979090169806255517e+00,-9.047664698513353088e+00,-9.743691706881170589e+00,-1.195731301808556957e+01
6.245161653225028697e-02,-8.090939032505384265e-02,9.442738559136873988e+00,-9.413644018849055328e+00,-9.458424903277503404e+00,-9.438750332558665690e+00,-1.281552679732583044e+01,-1.141131650979428613e+01,-9.906593129021562305e+00,-8.994141603664280282e+00,-9.677680087806940890e+00,-1.184988341064188511e+01
6.589127730200627919e-02,1.008815135215135328e-02,9.503104133581111057e+00,-9.366137609698178323e+00,-9.421284410867245995e+00,-9.393051838808188947e+00,-1.275104650609521961e+01,-1.135739748453048392e+01,-9.874241869194118948e+00,-8.985258948483894059e+00,-9.670316397288402754e+00,-1.181862339940881768e+01
9.221854520578087744e-02,1.286159524381502717e-01,9.755240123324430357e+00,-9.561564752253799426e+00,-9.630293586408335216e+00,-9.554254846471911478e+00,-1.287642858533461165e+01,-1.134892881515596308e+01,-9.856008610973022499e+00,-9.072784876463215298e+00,-9.853842619660612812e+00,-1.202939742565296832e+01
1.115743679271273825e-01,1.045053809894533892e-01,9.632501246873633960e+00,-9.520965465294862540e+00,-9.566928634719541691e+00,-9.471373321936921386e+00,-1.280453192568183773e+01,-1.130485896504119836e+01,-9.798037311627336265e+00,-8.962853978670972666e+00,-9.711866294216266127e+00,-1.189085630555844020e+01
1.067070660933709947e-01,5.293637213547441878e-02,9.317828956328002121e+00,-9.207700977345028903e+00,-9.242434928388039594e+00,-9.173027748591110253e+00,-1.249607792916493132e+01,-1.115213571065524256e+01,-9.668446857452533294e+00,-8.728727640491829476e+00,-9.371497640923740491e+00,-1.149132268542266999e+01
1.041603098414299877e-01,7.450389676118618354e-02,9.322301086464669595e+00,-9.186682414998422530e+00,-9.221825302897801890e+00,-9.148861372228420663e+00,-1.244358116499931377e+01,-1.109866033662633278e+01,-9.624153771057352813e+00,-8.706989602380229343e+00,-9.356943249535730089e+00,-1.146311418493073120e+01
1.063663457133763313e-01,2.331045901730577352e-02,9.513549882816354497e+00,-9.440910459285502654e+00,-9.458626219231771159e+00,-9.351436321211886948e+00,-1.259337426229897616e+01,-1.107254859262881119e+01,-9.595327628395162733e+00,-8.846325196669898361e+00,-9.630959051259164738e+00,-1.176910616573930213e+01
1.063619374771365145e-01,-5.823444313456127563e-02,9.419455854474440670e+00,-9.466811694797682364e+00,-9.451267309013056561e+00,-9.342314346777733647e+00,-1.259716002091807141e+01,-1.106634956976372663e+01,-9.587302297149435049e+00,-8.839474708122278201e+00,-9.622554863544827697e+00,-1.177027904124789259e+01
1.059595376095592290e-01,-4.403196294039246617e-02,9.116771776026119767e+00,-9.125729188156812555e+00,-9.133984674054238084e+00,-9.069310544457968248e+00,-1.231242914268788269e+01,-1.094071830493042441e+01,-9.485014253016862185e+00,-8.607161637316682601e+00,-9.264405218992900259e+00,-1.136305705099553265e+01
1.124036450443794966e-01,8.826641165939108635e-02,9.042514634278198571e+00,-8.885058997154413163e+00,-8.969381369880006005e+00,-8.931408257647168725e+00,-1.211903556340930699e+01,-1.080768712731815562e+01,-9.373446677609566180e+00,-8.457721294280506896e+00,-9.068895824166236963e+00,-1.113084849429866630e+01
1.186540951684115219e-01,1.001823570711684042e-01,9.045674858178369249e+00,-8.862871733181950873e+00,-8.958660407669350789e+00,-8.922282420582611451e+00,-1.209675318490068818e+01,-1.077995556670406074e+01,-9.348416386058445937e+00,-8.438033414981809699e+00,-9.054201651221985614e+00,-1.111521458474979518e+01
1.132412503333840581e-01,1.125661905460484391e-02,9.115534220445603353e+00,-8.991286612452302762e+00,-9.039014871004910745e+00,-8.995009704147740592e+00,-1.218543921907707350e+01,-1.081208698872035256e+01,-9.384383060960631795e+00,-8.545847504140553497e+00,-9.220304174002915687e+00,-1.128893610080048227e+01
9.211630194850717324e-02,-1.425584037409666216e-03,9.097756091075977380e+00,-8.946592635150652839e+00,-8.974099655238976680e+00,-8.937884435636282987e+00,-1.211953717659357466e+01,-1.074326125711472102e+01,-9.332567742110335018e+00,-8.536255980399213072e+00,-9.230956020085784530e+00,-1.128297549092407159e+01
8.292590269063715436e-02,4.673420388705307182e-02,9.060518765065753044e+00,-8.814638022938478201e+00,-8.858564553527900287e+00,-8.828616026061661515e+00,-1.197272206066198841e+01,-1.061487144354548384e+01,-9.222980902776575007e+00,-8.445490085455462648e+00,-9.137486362432328590e+00,-1.116183517501592348e+01
8.959755096192312251e-02,5.100051308441400089e-02,9.039791357976522335e+00,-8.775327908996134241e+00,-8.819804962977178420e+00,-8.784599393578668369e+00,-1.190599218613653321e+01,-1.054902837910570312e+01,-9.163638781892412766e+00,-8.396456907942024372e+00,-9.088455100506596551e+00,-1.110303220072893460e+01
1.054416916608237331e-01,4.369644721338528104e-02,9.053061260918950026e+00,-8.828663841785855837e+00,-8.863965419552801706e+00,-8.816706891455709183e+00,-1.193226869659734213e+01,-1.056160513319144378e+01,-9.170476459570229721e+00,-8.400161245330629356e+00,-9.094474342368835451e+00,-1.111774409409802544e+01
1.050163087126617656e-01,7.729341891224406069e-02,8.926192710851100998e+00,-8.670576620754591346e+00,-8.727668330052825496e+00,-8.685418444542678529e+00,-1.179157315839878883e+01,-1.048945479200073549e+01,-9.121308986531277085e+00,-8.315950733752506707e+00,-8.954961386629545217e+00,-1.094583611934615064e+01
8.863610478703343176e-02,1.239368503237823216e-01,8.728020404011695987e+00,-8.495573660163987739e+00,-8.564317357003373488e+00,-8.533583434786054411e+00,-1.161124273413149410e+01,-1.036954074118115443e+01,-9.003588197367664137e+00,-8.136113859975287355e+00,-8.721382743960358397e+00,-1.069571525547754298e+01
7.346610565557232242e-02,1.066496772541315474e-01,8.680724397261457170e+00,-8.510022732387382050e+00,-8.564044659281828231e+00,-8.518857817205020666e+00,-1.156439476845856085e+01,-1.028450348330169284e+01,-8.927092844048148734e+00,-8.108902286816267235e+00,-8.723816864161991091e+00,-1.069029961913154736e+01
7.347480182351295852e-02,8.266838204652171562e-02,8.871602517191686132e+00,-8.848181573591183735e+00,-8.819495894429405070e+00,-8.759384395277914237e+00,-1.178205851908345636e+01,-1.035277343062919364e+01,-8.969914396888492902e+00,-8.246245024399298629e+00,-8.968906931714826669e+00,-1.099181542599938766e+01
9.016878591815324917e-02,6.284033584957648966e-02,8.877807104390937454e+00,-8.913584926812566422e+00,-8.839545608549986611e+00,-8.778497459256630719e+00,-1.182272913293287253e+01,-1.039238380925206329e+01,-9.009582576645428276e+00,-8.280740367260351675e+00,-8.999573341102239610e+00,-1.103014732997050729e+01
9.686053735964428313e-02,1.214155753047220232e-01,8.643331357963656814e+00,-8.531831972946198661e+00,-8.512698609437448383e+00,-8.495019394023293202e+00,-1.148098139862024247e+01,-1.018291172580318005e+01,-8.827340695321055364e+00,-8.014351675041627487e+00,-8.639567658880286771e+00,-1.060814463008768271e+01
1.005972951822828865e-01,1.165260394449862957e-01,8.409128059757993157e+00,-8.132611799322141621e+00,-8.205517846706758434e+00,-8.200606397572903106e+00,-1.115653858597428005e+01,-9.986246754896574984e+00,-8.680090781071438499e+00,-7.832672514137073883e+00,-8.378236693801420998e+00,-1.026375513644005011e+01
1.048043841034698165e-01,1.612545888560290575e-02,8.413323314137414854e+00,-8.147808087210595573e+00,-8.232125299582357059e+00,-8.208123776690264606e+00,-1.114836320207684039e+01,-9.926464956380401716e+00,-8.643329366902879229e+00,-7.886098605532306571e+00,-8.487097501106536157e+00,-1.036080005482895139e+01
1.081909485611373123e-01,-5.181776802620630118e-02,8.440830563460906433e+00,-8.361812938028037934e+00,-8.390780429798356366e+00,-8.330459260463992877e+00,-1.133565747046888816e+01,-1.005132595107371785e+01,-8.734496717334312876e+00,-7.985148823304204946e+00,-8.629387878017622526e+00,-1.055543539211120851e+01
1.040701133232461162e-01,2.475223353124111902e-02,8.360712855552819178e+00,-8.210429573570651840e+00,-8.248758053390098155e+00,-8.191314730367633246e+00,-1.116405692269503191e+01,-9.934567819929284838e+00,-8.630871862345188106e+00,-7.855747950324181161e+00,-8.468763431788621787e+00,-1.036389865685004885e+01
9.916150002240631256e-02,1.206072316583879367e-01,8.537520168734630488e+00,-8.356796999301536744e+00,-8.372393060149006416e+00,-8.314794064293279163e+00,-1.125711115128193285e+01,-9.971824965148229580e+00,-8.660402761149374129e+00,-7.936311465666597620e+00,-8.601544239948863080e+00,-1.051716896171361171e+01
9.839376426661050612e-02,1.158188430023082693e-01,8.495392768370672698e+00,-8.348814052725050061e+00,-8.342707330587172621e+00,-8.285921484259318959e+00,-1.121583942131205092e+01,-9.941348370736781348e+00,-8.640824502800994011e+00,-7.915479034447866269e+00,-8.569826823344136812e+00,-1.048113671287872606e+01
9.898326846204419383e-02,8.517667453813315692e-02,8.236908424048099420e+00,-8.189991978274273166e+00,-8.168232034941022235e+00,-8.114927628198643106e+00,-1.106726697691754957e+01,-9.877085752484852321e+00,-8.571772140875799195e+00,-7.739992871514565387e+00,-8.310142678062259591e+00,-1.021091600281967793e+01
8.108064756674693285e-02,1.011851386097045724e-01,7.961875213687211961e+00,-7.832560584090652256e+00,-7.851141827079635149e+00,-7.808752685525354842e+00,-1.072383740708739097e+01,-9.641557589625699975e+00,-8.373250306780867902e+00,-7.492569765291940520e+00,-7.982303233882582560e+00,-9.809022756867237902e+00
6.898498161871779999e-02,1.776362646119998834e-01,8.301447531018512294e+00,-8.104445657419269367e+00,-8.133264501958462844e+00,-8.063596737596894215e+00,-1.088784246200804873e+01,-9.588912274344846054e+00,-8.312638529448939551e+00,-7.636289945912055899e+00,-8.299207168943871338e+00,-1.015310986363050461e+01
6.992239406222300335e-02,2.426519474385044894e-01,8.497904797360941842e+00,-8.241007791128811988e+00,-8.272021807952397054e+00,-8.185109671915119733e+00,-1.096619081576437615e+01,-9.579435668231230494e+00,-8.303808096282928375e+00,-7.716874472667724305e+00,-8.447010693046923535e+00,-1.030984101150146159e+01
8.007740282994180170e-02,2.370257469934196060e-01,8.277902800953375717e+00,-8.008826088946294774e+00,-8.050021056183435775e+00,-7.966952427776048395e+00,-1.077754064645061405e+01,-9.520509377841388954e+00,-8.265337276476412143e+00,-7.577430052817701878e+00,-8.205013455085088836e+00,-1.003010943964436130e+01
8.040770119600249011e-02,1.861801636763023016e-01,8.025662041521993473e+00,-7.835208738975641296e+00,-7.870527760799953754e+00,-7.795327853520259254e+00,-1.064222584007685235e+01,-9.490356891990943566e+00,-8.244539025382964681e+00,-7.457871411783525417e+00,-8.000221153128865836e+00,-9.804555450282572693e+00
7.323905720497803085e-02,1.809035699317134149e-01,7.889478228774527757e+00,-7.815624824120132708e+00,-7.841956000775756053e+00,-7.765534224365222116e+00,-1.060013762176743768e+01,-9.451701801080075072e+00,-8.179530376714474471e+00,-7.330808885919630313e+00,-7.850988918695843033e+00,-9.682406798558508498e+00
6.181557870746001715e-02,2.179870180432300630e-01,8.129312928624685242e+00,-7.997358338993887372e+00,-8.051616105396917078e+00,-7.959960020976827977e+00,-1.070153674426901702e+01,-9.381560741508589985e+00,-8.114768251810312805e+00,-7.441383262223784989e+00,-8.096568865278090499e+00,-9.943349824387290425e+00
5.511107288101546597e-02,2.311831267874676632e-01,8.099684282241021549e+00,-7.770798481704947136e+00,-7.882341587682144102e+00,-7.814583168156758575e+00,-1.045470213838194695e+01,-9.164022090183060243e+00,-7.948061581930462971e+00,-7.338266024333036874e+00,-7.991582316629285643e+00,-9.765060608793172392e+00
6.746458955974743432e-02,8.795579262525465847e-02,7.850774697933514901e+00,-7.568771437581814254e+00,-7.660832295643436929e+00,-7.614721976402289094e+00,-1.025920915701638947e+01,-9.066478984076454140e+00,-7.874411483907031162e+00,-7.209298138814095758e+00,-7.793178374224985383e+00,-9.521914675875281731e+00
8.026305911846898233e-02,-8.486474622594397665e-02,7.491305056101020377e+00,-7.451506827559935431e+00,-7.467648305092168926e+00,-7.428541306190930449e+00,-1.016637427438980446e+01,-9.105074632787820477e+00,-7.894719113099050389e+00,-7.069934590091710547e+00,-7.538450082848463296e+00,-9.276204654166246399e+00
7.556115520251982520e-02,-1.010853357358955096e-01,7.609108740790526682e+00,-7.628402700266793346e+00,-7.620490898837311455e+00,-7.558610907533265255e+00,-1.030253236692891328e+01,-9.131759700539745950e+00,-7.920832254302993647e+00,-7.208943441445517131e+00,-7.773264125126088331e+00,-9.538673846655449040e+00
6.647524124694392800e-02,5.786556570239054231e-02,7.829134639805375606e+00,-7.711855229437175829e+00,-7.732280517148248933e+00,-7.664787252359833936e+00,-1.036318943803403059e+01,-9.128111822360912342e+00,-7.926362364752836953e+00,-7.302339432260331442e+00,-7.934185477891227301e+00,-9.698218424758739076e+00
6.989001167637043377e-02,1.268314106339415437e-01,7.792930594196228355e+00,-7.616772245163589972e+00,-7.650564387159496604e+00,-7.589176634216406647e+00,-1.027386306997392573e+01,-9.094574012261542606e+00,-7.904847324155629629e+00,-7.246760316567640636e+00,-7.842560393315715750e+00,-9.579583002147964876e+00
7.578016980099366862e-02,5.057639685235448823e-02,7.606128601653416865e+00,-7.552561416647527892e+00,-7.564519281870438761e+00,-7.506428196242052486e+00,-1.018198129525159246e+01,-9.033511420658772550e+00,-7.832099432770734282e+00,-7.124722175377238287e+00,-7.688338023959643053e+00,-9.419741886318911739e+00
7.919552203231905452e-02,-6.591525921979435321e-02,7.463941210320913733e+00,-7.534965904197757247e+00,-7.527499755756879019e+00,-7.470351740058585044e+00,-1.010583507832865635e+01,-8.926813900410266456e+00,-7.727251338638131628e+00,-7.045976229061608365e+00,-7.629158820913882089e+00,-9.354203105821950359e+00
8.580156773028868589e-02,-8.385750652499401880e-02,7.387591436219824281e+00,-7.504381656100625797e+00,-7.483058237544499391e+00,-7.435278765854476113e+00,-1.007402100179296411e+01,-8.918555560769410917e+00,-7.725710740311046543e+00,-7.024460854736489068e+00,-7.586685041996786616e+00,-9.304682019043632124e+00
9.712154502619019247e-02,-6.634326717150040853e-02,7.305782066992510870e+00,-7.368988621684399831e+00,-7.356412378241402372e+00,-7.320561072274532677e+00,-9.966991869862972919e+00,-8.886564810780303247e+00,-7.720039068828110196e+00,-6.987969910578352817e+00,-7.497771622999041874e+00,-9.182235434217522752e+00
9.925334039569233546e-02,-8.194478038583596913e-02,7.217046786867512331e+00,-7.281307988134601672e+00,-7.278210094871149671e+00,-7.240539620804288923e+00,-9.866840892000343644e+00,-8.804267002964847322e+00,-7.639623131773130460e+00,-6.901702773748130681e+00,-7.401613139354051185e+00,-9.074553086603382113e+00
1.004742172008338263e-01,-1.177725849847567341e-01,7.205968224463366489e+00,-7.298483910250318729e+00,-7.296214435227885708e+00,-7.238147170241137296e+00,-9.840434872690375201e+00,-8.744937654777295677e+00,-7.576116145873340812e+00,-6.870030792477134440e+00,-7.395698327872704425e+00,-9.074613473108042783e+00
9.904499853720194480e-02,-9.330644767540896556e-02,7.195748345540668112e+00,-7.226128943652046388e+00,-7.225529478588787136e+00,-7.157411393299068614e+00,-9.741367975740189422e+00,-8.671587198469717706e+00,-7.515494622488180454e+00,-6.807470808596352008e+00,-7.321453912842454059e+00,-8.983730028118635857e+00
9.720204097951434807e-02,3.153115021168473309e-02,7.435625897328115741e+00,-7.312271227950273733e+00,-7.342331678701154551e+00,-7.250759709287704524e+00,-9.778645317736714304e+00,-8.609872778076953281e+00,-7.465516721757578189e+00,-6.879088327272672387e+00,-7.481029683214399206e+00,-9.146307843483107547e+00
9.452765083570990878e-02,1.322652345391125417e-01,7.557561534032394945e+00,-7.339589760094485271e+00,-7.381642264819708643e+00,-7.287204968395640137e+00,-9.780506599740615314e+00,-8.563277038419442988e+00,-7.425214483985690173e+00,-6.895975553583402196e+00,-7.541145941195603442e+00,-9.206861705249112404e+00
8.728340706577575325e-02,1.126177433382808957e-01,7.383215181161386198e+00,-7.249280778327872099e+00,-7.263905792987588761e+00,-7.193385911000181210e+00,-9.717982554322805555e+00,-8.561142477711898735e+00,-7.415862966228312203e+00,-6.808889923800501620e+00,-7.401923568974384082e+00,-9.068789333674684983e+00
7.955988548030668017e-02,8.639797555836226106e-02,7.077502328407896393e+00,-6.959469626480922599e+00,-6.983072532776740005e+00,-6.954718502670363733e+00,-9.482675063818074790e+00,-8.458686634417901473e+00,-7.332468346153818040e+00,-6.613021954500369226e+00,-7.103387144493104266e+00,-8.727776348449729937e+00
7.957614365337262186e-02,1.372662108661037994e-01,7.063896935598828364e+00,-6.870112408667776727e+00,-6.936154518821424197e+00,-6.921360468060536952e+00,-9.424103230251320795e+00,-8.408218033814575776e+00,-7.300101988891634086e+00,-6.591206467954366488e+00,-7.077644298118001664e+00,-8.680427727646289782e+00
8.519199397460164302e-02,2.359662418612651358e-01,7.158554941321449760e+00,-6.820963078382872524e+00,-6.925393297353076072e+00,-6.913760683745202584e+00,-9.402890220287464018e+00,-8.404972590238946495e+00,-7.320264345585440147e+00,-6.629410541924237066e+00,-7.107368113328668358e+00,-8.681738001609241806e+00
8.517749360577120399e-02,2.441211005436123571e-01,7.233410214879256728e+00,-6.898582392458753709e+00,-7.008856877293900389e+00,-6.979095810470712813e+00,-9.436705999339753959e+00,-8.371904211958559827e+00,-7.277751388594078108e+00,-6.636405339680552018e+00,-7.162684697170202952e+00,-8.752065822492127722e+00
6.967137283830526773e-02,2.424651338579711934e-01,7.234903222179500659e+00,-6.892635844253529598e+00,-7.020031519341198845e+00,-6.991981904030406092e+00,-9.341701360596113446e+00,-8.209802898817557093e+00,-7.105026062590662050e+00,-6.514755403148903667e+00,-7.091794794189842932e+00,-8.691043309294327557e+00
6.340909882179557311e-02,1.023166292470776284e-01,7.054422193461898694e+00,-6.801194181390044058e+00,-6.902869530158615596e+00,-6.884043842400243030e+00,-9.206361701325800340e+00,-8.099793957676608258e+00,-7.002365765216813642e+00,-6.400221937422974072e+00,-6.959292964413886118e+00,-8.543830270086228751e+00
7.003538690182986581e-02,2.522802007246138789e-02,6.885371785246922727e+00,-6.677749311270886778e+00,-6.742513967064569513e+00,-6.738956425901671210e+00,-9.129037181459846551e+00,-8.127938929611618235e+00,-7.043054456969185750e+00,-6.365690385925651285e+00,-6.846769544716615030e+00,-8.405674946209753529e+00
7.194333343748426923e-02,7.937989618508645151e-02,6.867648113096792351e+00,-6.507852328999828018e+00,-6.586965338267784631e+00,-6.597287432665174478e+00,-9.007340001321367140e+00,-8.064820521974873202e+00,-7.022259027532265385e+00,-6.371820473710768873e+00,-6.830889024663701292e+00,-8.338393710784922419e+00
6.565072970312735290e-02,2.472066572690673203e-01,7.023539713017365571e+00,-6.526190812011112286e+00,-6.620577684775111216e+00,-6.632737538818854972e+00,-9.023713296239401771e+00,-8.048243398875145616e+00,-7.013026617001788310e+00,-6.413191824607298308e+00,-6.906882715092440783e+00,-8.416839014206079383e+00
5.447733232896012634e-02,2.973118966972780886e-01,7.112283431266896550e+00,-6.663152997720512616e+00,-6.737580518147700204e+00,-6.729192699591903803e+00,-9.108633864398896662e+00,-8.032117929254551925e+00,-6.984473121723296707e+00,-6.459843499839617920e+00,-7.032942211822888368e+00,-8.574512972495270446e+00
6.282762076994008460e-02,2.870145057508096675e-01,6.961001457989426378e+00,-6.581648621967483237e+00,-6.653766459099322184e+00,-6.632428857495276553e+00,-8.978712416725176837e+00,-7.924707464986662231e+00,-6.873750513338023005e+00,-6.306039801828648095e+00,-6.848008131751540439e+00,-8.381333537905401698e+00
7.310161834617512344e-02,1.683376355965626736e-01,6.799191109511173892e+00,-6.509995935804729683e+00,-6.566904558568025685e+00,-6.546354878725141546e+00,-8.832506395997135940e+00,-7.792466935606091383e+00,-6.755585884008823427e+00,-6.195103171491512128e+00,-6.725954996595920221e+00,-8.231192372738494356e+00
8.845738407833914074e-02,1.061468591221137459e-02,6.610049884307440671e+00,-6.544543396259568269e+00,-6.559173993440357897e+00,-6.525311370847729719e+00,-8.825135062119155549e+00,-7.813584762736025091e+00,-6.762563516770141447e+00,-6.147733749338398113e+00,-6.641486743572406759e+00,-8.158226469896968425e+00
8.573304060385877889e-02,-4.157279749798170609e-02,6.549947625338299773e+00,-6.623113275714753279e+00,-6.613744469642216295e+00,-6.571151311116363303e+00,-8.907089841651805173e+00,-7.883801036349556313e+00,-6.824089086349481192e+00,-6.210438323978095809e+00,-6.715397190789045290e+00,-8.251914348047820980e+00
8.408656041792172964e-02,7.215952100420475190e-03,6.430767613612300870e+00,-6.407862895398424463e+00,-6.430755914167725074e+00,-6.405385984196382942e+00,-8.729445420506484865e+00,-7.798032528539426522e+00,-6.779452267059178361e+00,-6.140892684903960230e+00,-6.590235480114679412e+00,-8.071904511848362773e+00
7.901606499198310374e-02,2.708164790116895926e-02,6.415484050758499812e+00,-6.386859309805497986e+00,-6.409874273875255213e+00,-6.394322109459009695e+00,-8.694311220737230173e+00,-7.760778900375189693e+00,-6.747070360426827840e+00,-6.121609452711314958e+00,-6.577132360863137350e+00,-8.050254102569759596e+00
7.360920180916663558e-02,1.387889703882627668e-02,6.407973788680264349e+00,-6.400237289409036912e+00,-6.435847163393146886e+00,-6.409725071141929575e+00,-8.666553453880368352e+00,-7.692722070083204855e+00,-6.676300469064432974e+00,-6.091509247647982406e+00,-6.576213879425700348e+00,-8.048060871702269026e+00
7.229976049047515119e-02,-2.279654493365645962e-03,6.402525408387163885e+00,-6.421093507648265586e+00,-6.458313167600744364e+00,-6.420969753983200690e+00,-8.661687934307014558e+00,-7.669621448659023955e+00,-6.652792774090862338e+00,-6.084029534314574050e+00,-6.577355858198731475e+00,-8.049125664058397689e+00
7.374989238575746509e-02,2.933897301339360997e-02,6.318920256609451336e+00,-6.254516469794546119e+00,-6.305629290330185377e+00,-6.283936959157170321e+00,-8.485025346135993018e+00,-7.549503688679614299e+00,-6.554957191905018909e+00,-5.957030535030745533e+00,-6.407200765456377844e+00,-7.842878474779519493e+00
7.081925436454494793e-02,2.327150273374478662e-02,6.299176509288992420e+00,-6.201550374728437731e+00,-6.234288371755838831e+00,-6.228215393824394042e+00,-8.399208061667076564e+00,-7.466450770876186027e+00,-6.486503340312656185e+00,-5.902705759925379603e+00,-6.356782167645536497e+00,-7.774975538743078118e+00
5.614974285482610128e-02,-6.873019394959789530e-02,6.224186582520711220e+00,-6.167842437104394726e+00,-6.177866373464065752e+00,-6.171415998057376839e+00,-8.316004660128797354e+00,-7.358334842225060513e+00,-6.395833909962727049e+00,-5.866659004030083224e+00,-6.354036349052568866e+00,-7.755097086014207441e+00
5.287988164458112816e-02,-2.398793704417604422e-01,6.036234402543947830e+00,-6.149318056007053279e+00,-6.117950392394009285e+00,-6.087304816275356245e+00,-8.258353108726163683e+00,-7.313062241225240179e+00,-6.355571686317921021e+00,-5.821823007730596800e+00,-6.300299045470988624e+00,-7.695018333774127584e+00
5.474083693269227169e-02,-2.510774604523062226e-01,5.974512800629676157e+00,-6.183205358032433985e+00,-6.127268187721406356e+00,-6.078196877999292980e+00,-8.270454267394427461e+00,-7.344212092130643299e+00,-6.371010599770193572e+00,-5.793954751763129352e+00,-6.248169062304913091e+00,-7.657373329728586420e+00
5.116421738456866652e-02,-2.146752254759969336e-01,6.005704134729508148e+00,-6.227952925913684545e+00,-6.166716379852683616e+00,-6.104386247210687344e+00,-8.285858723482062871e+00,-7.350531041882112149e+00,-6.369317302091812572e+00,-5.795510723743340975e+00,-6.258202958885016542e+00,-7.673409637650896897e+00
4.640289332929259380e-02,-8.752504428043728080e-02,6.111756582650857084e+00,-6.231913543335181771e+00,-6.210115831441564538e+00,-6.139476041584397414e+00,-8.261701734557108878e+00,-7.289104568621404212e+00,-6.304387715675714432e+00,-5.765314425496364414e+00,-6.259484195733624468e+00,-7.678292411044488119e+00
5.864459216348816284e-02,-1.127128678839006692e-02,6.044683097132947047e+00,-6.000743970186658949e+00,-6.059235361398422448e+00,-5.969039416684981170e+00,-8.040833496002608882e+00,-7.109437630897907034e+00,-6.162445814518512144e+00,-5.639205244534870154e+00,-6.102516619188590674e+00,-7.467672350946696014e+00
6.622830750354158358e-02,3.596260174167542623e-02,6.118747031494178756e+00,-6.052996315450098308e+00,-6.103853584187826975e+00,-6.015267240571594343e+00,-8.084569246832794320e+00,-7.128996529975244911e+00,-6.180699981923078568e+00,-5.695053639745669471e+00,-6.167765892028152841e+00,-7.543067120595413400e+00
6.251120572160906441e-02,-2.814608037539723107e-02,6.015089725816504362e+00,-6.057345562442001174e+00,-6.051369534601337641e+00,-5.984392625744876959e+00,-8.083488668679054356e+00,-7.157794245716755377e+00,-6.202386589224595070e+00,-5.688220206145696345e+00,-6.134367134708490710e+00,-7.517134970102187452e+00
4.923299642748479865e-02,-5.076609943726551055e-02,5.895690234180396061e+00,-6.003496011176748581e+00,-5.972041086138125010e+00,-5.932219856362470622e+00,-8.037804416448915745e+00,-7.147785336446580651e+00,-6.186113686059830030e+00,-5.622871981255917362e+00,-6.045937603330709287e+00,-7.426294130194162513e+00
4.790713652998968008e-02,-1.376311179128175688e-03,5.844572402105478126e+00,-5.846630086701736673e+00,-5.882783703131815756e+00,-5.842116413038777267e+00,-7.893016524316042393e+00,-6.998030756356566684e+00,-6.064598004488396477e+00,-5.524588977933320599e+00,-5.961797834626428205e+00,-7.304294902808375234e+00
4.578145300234337522e-02,1.594703328253599395e-02,5.806383646955323385e+00,-5.754156743143852282e+00,-5.815960725362569583e+00,-5.787749100755402942e+00,-7.805708429124063485e+00,-6.911822116202806399e+00,-5.994007611836562610e+00,-5.470042608949430729e+00,-5.911804963053909567e+00,-7.235762030773202014e+00
5.467283375471199136e-02,1.992277250275642508e-02,5.800548583696168770e+00,-5.755192378857917568e+00,-5.786756562264908865e+00,-5.777566012544965268e+00,-7.817281399119702989e+00,-6.942919747371789185e+00,-6.028541554116900514e+00,-5.486460571069850189e+00,-5.912412238980731871e+00,-7.236560711788958322e+00
5.825498556070562994e-02,2.129539143113490240e-02,5.745530291190188876e+00,-5.706329119950238393e+00,-5.701397807912481852e+00,-5.711081696488987447e+00,-7.801161336386781997e+00,-7.003230664310155618e+00,-6.098797672650550616e+00,-5.496540633091792749e+00,-5.865133276587770617e+00,-7.173115575831128687e+00
4.082983719614241558e-02,-4.549598458612391649e-02,5.730776549056321834e+00,-5.720392286605204824e+00,-5.705855433321124437e+00,-5.714335690361981968e+00,-7.767973417021470262e+00,-6.909666156561273809e+00,-6.014174121711458376e+00,-5.488803465983606245e+00,-5.917460553780022003e+00,-7.220613430293115975e+00
2.816216808932248128e-02,-7.899007087359966039e-02,5.725783472202504498e+00,-5.679073887931494369e+00,-5.679148404935573602e+00,-5.682155941123228970e+00,-7.678023961132783626e+00,-6.776942761628945711e+00,-5.906010315748200235e+00,-5.460934530131128284e+00,-5.932804972066810123e+00,-7.215277048230003487e+00
3.892686560178204580e-02,-9.176397268652725092e-02,5.697777665863098306e+00,-5.675155194179238194e+00,-5.676632223893658846e+00,-5.662586803152502846e+00,-7.654334993984597268e+00,-6.753226486725983690e+00,-5.882624304645167612e+00,-5.430834028343604736e+00,-5.895143257357665867e+00,-7.178439795527062017e+00
6.744882418831166238e-02,-8.135395346648854886e-02,5.635341030224768843e+00,-5.635874239415051612e+00,-5.646195251407232440e+00,-5.611629778293482751e+00,-7.604057451691450531e+00,-6.727891933691305226e+00,-5.852403589667928507e+00,-5.356740188957872739e+00,-5.784356486441010858e+00,-7.067212357900769071e+00
7.281103544342315548e-02,-7.816659429278494109e-02,5.514476698213360173e+00,-5.537132253912927737e+00,-5.552496145205519262e+00,-5.514152510666695761e+00,-7.496977030808053222e+00,-6.657030435621042130e+00,-5.783898264858388316e+00,-5.256369447652190274e+00,-5.654541740630801172e+00,-6.920713419297769065e+00
6.055386627366876606e-02,6.104812799327441475e-02,5.569904150332527948e+00,-5.526527057859122571e+00,-5.554156995590546764e+00,-5.529030307485235163e+00,-7.464926841865434426e+00,-6.594632502524448547e+00,-5.723802378175125050e+00,-5.227188316738708096e+00,-5.650116517477326461e+00,-6.914084295269188551e+00
5.266346051556869412e-02,7.708890297695425442e-02,5.570927108115826698e+00,-5.565511441509555901e+00,-5.571211564754988466e+00,-5.548888190074671378e+00,-7.493654391653039148e+00,-6.626434622734631574e+00,-5.754970596448665709e+00,-5.258158973393888935e+00,-5.683003332502873484e+00,-6.949167816942820153e+00
5.133542527086043528e-02,-6.425263644608358860e-02,5.462124490223664530e+00,-5.588424736006183835e+00,-5.556764670765918623e+00,-5.530162238369775274e+00,-7.479847709577983395e+00,-6.603735147707912034e+00,-5.732010893587768052e+00,-5.252406797512723102e+00,-5.690634187884596962e+00,-6.958247972631991907e+00
5.708290996636555814e-02,-2.020482510359107309e-01,5.213177572881027899e+00,-5.389784198943176285e+00,-5.350235927669110936e+00,-5.326719552852387629e+00,-7.280251155463816737e+00,-6.500430785402353528e+00,-5.651108356180435166e+00,-5.122825559937249196e+00,-5.497173621334119353e+00,-6.720986012659614595e+00
5.076196585834724662e-02,-1.970718104566543949e-01,5.037950766948291914e+00,-5.187780452993729696e+00,-5.164180966208258283e+00,-5.143479976730385594e+00,-7.082091884851571706e+00,-6.376934858616008839e+00,-5.538392540456660740e+00,-4.961167326499804631e+00,-5.282605678853732556e+00,-6.476020730890198251e+00
5.121699356668385494e-02,-1.019645585515066566e-01,5.286172739084080696e+00,-5.390501318659728369e+00,-5.368400955548821685e+00,-5.316678493824274376e+00,-7.230928832404907247e+00,-6.399216616990608841e+00,-5.543580330655004218e+00,-5.073644053887519156e+00,-5.496008212270925952e+00,-6.722015902894430184e+00
4.904456179859417730e-02,7.472605754731953542e-02,5.504318669918824014e+00,-5.457639958885356357e+00,-5.462960977381191796e+00,-5.391308225081785643e+00,-7.284612187397307537e+00,-6.387678228621916254e+00,-5.540075358270001971e+00,-5.146991391637019575e+00,-5.625773578094119820e+00,-6.855945482204235830e+00
5.469671873856385425e-02,1.894263469683107326e-01,5.450303531974092230e+00,-5.279549478183881206e+00,-5.306357217333583343e+00,-5.249715167111070002e+00,-7.101884153634090424e+00,-6.253683896201053471e+00,-5.421406635482761693e+00,-4.992347951621720625e+00,-5.433338939932085054e+00,-6.639569541527976071e+00
6.186525307207835223e-02,9.499071532296254894e-02,5.086167243140072181e+00,-4.970989983071208762e+00,-4.975735130587577437e+00,-4.939718899602572932e+00,-6.792221146002514587e+00,-6.097483598725772502e+00,-5.278369223460956938e+00,-4.705264881381767239e+00,-5.022143081979231205e+00,-6.192853951105912635e+00
7.117528734182720918e-02,-4.082343317481251788e-02,5.184166346277154780e+00,-5.122736816823389994e+00,-5.083297281262544765e+00,-5.040787885840310345e+00,-6.827233927867543350e+00,-6.008744632531501040e+00,-5.196379476621528326e+00,-4.764701148147361565e+00,-5.189270364829295268e+00,-6.368874367627109123e+00
7.102841449185470779e-02,-9.288009234174809947e-02,5.036114273222827009e+00,-4.984126730844634423e+00,-4.937144770524609427e+00,-4.883201208020949480e+00,-6.678117480821319063e+00,-5.927822958497564798e+00,-5.139045469501362540e+00,-4.683790252458227776e+00,-5.059457611795151522e+00,-6.203691223096849505e+00
6.245289762763661656e-02,-3.288977641077273084e-03,5.057664347425803619e+00,-4.998920822600974034e+00,-4.968559227544302459e+00,-4.888806524246908758e+00,-6.676807595363294823e+00,-5.910369935450644263e+00,-5.116438698126825280e+00,-4.673409173838273922e+00,-5.057782492343571690e+00,-6.202147131487548926e+00
5.711586576004623605e-02,8.272243556022029765e-02,5.155740265317631632e+00,-5.192589998334939949e+00,-5.130459760154546522e+00,-5.029994570468292459e+00,-6.816631804682956819e+00,-5.984952614933207293e+00,-5.153777884234160389e+00,-4.709242834438434500e+00,-5.129073560185362091e+00,-6.315195366924980291e+00
5.684036498018774086e-02,1.502120033083518269e-01,5.290009461264771673e+00,-5.339133066992542531e+00,-5.258265454887754764e+00,-5.152437160486671885e+00,-6.914843197379886952e+00,-6.010247477799849136e+00,-5.177947407964746951e+00,-4.797742648415962208e+00,-5.272330766124529333e+00,-6.470701464435228978e+00
6.329887906317277491e-02,1.484791264244145204e-01,5.022028440814313655e+00,-5.085236896612555846e+00,-5.004925160666848782e+00,-4.914640283966839718e+00,-6.720556237238493047e+00,-5.988377244100423269e+00,-5.179562366206691415e+00,-4.653736055984714071e+00,-4.986707374320906716e+00,-6.141679558829382657e+00
5.740422388130406173e-02,3.109322675024639437e-02,4.819736985506126281e+00,-4.930300707998581444e+00,-4.852281378053111105e+00,-4.767775526440545697e+00,-6.559931940429413189e+00,-5.881894638777114714e+00,-5.097918220373025555e+00,-4.556765133599189888e+00,-4.854099676594650248e+00,-5.973708854638822174e+00
3.980785359582639238e-02,-3.267660415784046091e-02,4.925566261492887676e+00,-5.075420697398916658e+00,-4.962394819802822710e+00,-4.897616091349745737e+00,-6.592937349586853735e+00,-5.778994796397114442e+00,-4.992327702849808091e+00,-4.568691098454364052e+00,-4.982289125653800888e+00,-6.121988760310107303e+00
3.492226524761632422e-02,-4.873494789589016829e-02,4.928522672292189100e+00,-5.010513149090652263e+00,-4.910516734177167386e+00,-4.855967691583343182e+00,-6.497360124540729309e+00,-5.659658462383796440e+00,-4.899077681710141796e+00,-4.532299257880075594e+00,-4.977084748303406414e+00,-6.091494496806693526e+00
4.678444121603153594e-02,-4.944276312003970109e-02,4.886320228241485708e+00,-4.922337737358295051e+00,-4.848131706536299212e+00,-4.793740168376811717e+00,-6.453572694754520001e+00,-5.662854960766772194e+00,-4.918400952081420030e+00,-4.532779463880150850e+00,-4.944374513872085153e+00,-6.037990907190713408e+00
5.808088578619741149e-02,-8.678474729378593544e-02,4.784797118020474471e+00,-4.874469618547931482e+00,-4.817667684974681563e+00,-4.755844774576369893e+00,-6.471598780704610476e+00,-5.728120096966452302e+00,-4.979950648394864565e+00,-4.554431408668454750e+00,-4.923692209294822320e+00,-6.016212225979015393e+00
4.067637046580185878e-02,-1.115851712115284444e-01,4.652740189059167086e+00,-4.818074896054351797e+00,-4.763942697415204819e+00,-4.726273118963099762e+00,-6.449326015227438091e+00,-5.716369362102101448e+00,-4.956154186082803115e+00,-4.511500582967832074e+00,-4.877861447980183840e+00,-5.978735306368663238e+00
3.563408248903809916e-02,-7.233783807671223531e-02,4.527932827793869741e+00,-4.625296169578897221e+00,-4.602910917433715277e+00,-4.594469652372668023e+00,-6.310718384917937129e+00,-5.667758376074766957e+00,-4.924995144527557933e+00,-4.426535826320471934e+00,-4.733018575762151237e+00,-5.797367779001481480e+00
4.582642952419568871e-02,-6.276293650831821225e-02,4.505898226933937600e+00,-4.558893825242539499e+00,-4.551016408138133684e+00,-4.547152126667971750e+00,-6.248125518718459226e+00,-5.641824435411668226e+00,-4.906271821044301262e+00,-4.386260292120307547e+00,-4.667173159959229878e+00,-5.715329311546862634e+00
6.287339337493136338e-02,-4.674481137991126634e-02,4.711895090249711870e+00,-4.749363271679322374e+00,-4.738904639089549065e+00,-4.709021125443464406e+00,-6.373005688781208100e+00,-5.675940119543476214e+00,-4.926485222942954323e+00,-4.471388629508963319e+00,-4.817225976416516176e+00,-5.891224137893008361e+00
6.162245052131054557e-02,-5.661507632563289594e-02,4.792750230384453580e+00,-4.781307903398342773e+00,-4.781755512325560176e+00,-4.733581663231738013e+00,-6.343728494682095764e+00,-5.586931614962941772e+00,-4.847513624722928682e+00,-4.468796803888970715e+00,-4.866663611849182836e+00,-5.934084782977879335e+00
4.585385408659270468e-02,-4.402911923554120310e-02,4.735354710841321868e+00,-4.677290175678709971e+00,-4.711530732913701947e+00,-4.657311679938492155e+00,-6.219134567209674280e+00,-5.447644019584042319e+00,-4.722327021665287283e+00,-4.377971308248446825e+00,-4.787574553948499734e+00,-5.840783076774579641e+00
3.268204752610859298e-02,-4.162265986923330274e-02,4.578067349080302328e+00,-4.482408221015885985e+00,-4.566750162839160687e+00,-4.505585965580062080e+00,-6.058250486468035767e+00,-5.333882383925796056e+00,-4.634759440486948989e+00,-4.282840675734687075e+00,-4.654083810656926445e+00,-5.673701767673567709e+00
3.630890624352833829e-02,-5.262996852647394697e-02,4.522413300796635838e+00,-4.493279947852923506e+00,-4.574505069067956953e+00,-4.512264499515124427e+00,-6.073000947153449403e+00,-5.349452570868217016e+00,-4.638677239697677201e+00,-4.261368395617409099e+00,-4.620446864003219467e+00,-5.648318270406107899e+00
5.225148329114048806e-02,-7.042007660427895832e-02,4.488292304787311338e+00,-4.545819872875008549e+00,-4.590492814987197079e+00,-4.537958630568891927e+00,-6.122735953618872351e+00,-5.405092494604781805e+00,-4.676099877879443589e+00,-4.259788907471256714e+00,-4.602488569240776428e+00,-5.642603268283247431e+00
4.927039604396898920e-02,-1.604295259040940946e-01,4.337031798280713168e+00,-4.497220078207245564e+00,-4.500534357951401887e+00,-4.474978001304394049e+00,-6.060072291890353569e+00,-5.359933157620281108e+00,-4.627216784037610608e+00,-4.189602494580544345e+00,-4.520229942084243113e+00,-5.559311816629354475e+00
4.842298985827442337e-02,-1.123846558659339356e-01,4.239991161680857878e+00,-4.233435558907087781e+00,-4.278246983887563637e+00,-4.283535848099345955e+00,-5.814017198801642472e+00,-5.186693401896421030e+00,-4.504632252475090581e+00,-4.074300544747253561e+00,-4.365937486417754698e+00,-5.341037085654113170e+00
5.425481514307595177e-02,-1.098492576293441658e-02,4.178056662533093935e+00,-4.051026432424139401e+00,-4.111894601233753832e+00,-4.128440331607786895e+00,-5.651917424072196994e+00,-5.116558141742351573e+00,-4.454599341146364466e+00,-3.962916316261503535e+00,-4.188882290561844357e+00,-5.130482080344346940e+00
6.338522684884495551e-02,7.528431682110536816e-02,4.442010269879649087e+00,-4.297332404254990301e+00,-4.351283820520656320e+00,-4.321990677080909116e+00,-5.821738075937386014e+00,-5.135788779605241494e+00,-4.450245511213307914e+00,-4.082165474919980497e+00,-4.424801075304205078e+00,-5.408783114848428220e+00
6.035673094556259777e-02,4.550250678662792758e-02,4.530910466153057925e+00,-4.495970962760476475e+00,-4.497691761691146262e+00,-4.429740579520933252e+00,-5.949607129743130329e+00,-5.181732190845934838e+00,-4.480033422444412494e+00,-4.174776075358447081e+00,-4.581930897578098794e+00,-5.597300931261709245e+00
5.733183159098376169e-02,2.219869393395867974e-02,4.471855455064936535e+00,-4.476754734878657160e+00,-4.447773410915177195e+00,-4.382200841679702030e+00,-5.882830180735912684e+00,-5.124662897153670293e+00,-4.434746347086366391e+00,-4.133579548776678436e+00,-4.537986502913487818e+00,-5.541120799508736816e+00
5.588225802295010425e-02,2.570127715107406452e-02,4.279185959122424165e+00,-4.342589157949631407e+00,-4.284327139006769869e+00,-4.243401612440609760e+00,-5.776363808047636716e+00,-5.126859805097012668e+00,-4.439651788295297052e+00,-4.025558676355162291e+00,-4.342566885306866631e+00,-5.331197406064134725e+00
5.849696868582454634e-02,8.174683143191963097e-02,4.243004110391292549e+00,-4.250017296690107749e+00,-4.220441056660993340e+00,-4.190677911236096342e+00,-5.712000750334370380e+00,-5.084601487124767338e+00,-4.403830308087304246e+00,-3.986163151035437391e+00,-4.287727572397728615e+00,-5.263366093621640651e+00
5.813370463472855576e-02,7.638751678975641557e-02,4.205054203906914978e+00,-4.129939949622798423e+00,-4.124185483848227918e+00,-4.109403606805720699e+00,-5.600543174932861135e+00,-4.994558507207154108e+00,-4.342674886380179622e+00,-3.959468007037394877e+00,-4.256430569244521678e+00,-5.197167578913152397e+00
5.237157625873778422e-02,-6.395771271898709198e-02,4.055246141388314740e+00,-4.038828055420530916e+00,-3.992496882047951168e+00,-4.007101142190203191e+00,-5.456525734792268878e+00,-4.881058289540695760e+00,-4.244840994604258455e+00,-3.854796338908776487e+00,-4.140015203461146598e+00,-5.064909216166336492e+00
3.758530618985389538e-02,-2.146469610781301940e-01,3.929003610355453535e+00,-4.078832553685492357e+00,-3.985436855947909862e+00,-4.003166853009260784e+00,-5.420436753386094431e+00,-4.798516857839392635e+00,-4.151986607533006080e+00,-3.781555052037330000e+00,-4.103447673685347574e+00,-5.047716652482646893e+00
2.817271292343770384e-02,-2.490284827571050408e-01,3.847701973397002817e+00,-4.073257046008711413e+00,-3.980542123102650098e+00,-3.980529647274877014e+00,-5.406156027340675685e+00,-4.788494155515562234e+00,-4.136861521835525579e+00,-3.748525007526179120e+00,-4.061862731931771719e+00,-5.009661505309889407e+00
3.280743021078191823e-02,-1.752911190045756129e-01,3.951725866775516405e+00,-4.079335591225176749e+00,-4.028801595595642659e+00,-4.003944854357393446e+00,-5.423895509335713072e+00,-4.782503985847908368e+00,-4.150370768170476232e+00,-3.821166872752604249e+00,-4.158152592297613026e+00,-5.083876432630861864e+00
4.842113293881211700e-02,-1.983503568113087479e-02,4.082683094406338142e+00,-4.081865760847934510e+00,-4.052852403141735671e+00,-4.023057520620818117e+00,-5.460061415680376840e+00,-4.832967558353207238e+00,-4.208755400966301075e+00,-3.874214736006758031e+00,-4.200478516360107051e+00,-5.120466480919513508e+00
5.660600004390736739e-02,5.295491301516452864e-02,4.088065844508994573e+00,-4.076353186944503548e+00,-4.043449947519790477e+00,-4.018789704908516391e+00,-5.457531907701461016e+00,-4.813319096167917088e+00,-4.180830466332835726e+00,-3.838142698737542879e+00,-4.171128107306015131e+00,-5.105859590026740946e+00
5.841685030119281308e-02,8.206770566274979029e-02,3.981279341834634167e+00,-3.942456504282696450e+00,-3.917498526244824752e+00,-3.909224004907958072e+00,-5.348392555854465158e+00,-4.744749264109676901e+00,-4.130798438159875019e+00,-3.756459981764402656e+00,-4.053196685903370344e+00,-4.973773702825103449e+00
5.840314280647207479e-02,1.046633056722067190e-01,3.919169711938368827e+00,-3.774981563817718211e+00,-3.778660169096443422e+00,-3.791598234888182262e+00,-5.202912602573512402e+00,-4.647132744756143019e+00,-4.068297217548222378e+00,-3.696992425215089195e+00,-3.963696752681132640e+00,-4.844211298682683520e+00
5.555548140891042319e-02,1.000542044522746421e-01,3.895036453834334722e+00,-3.732871943919923385e+00,-3.728035062648469289e+00,-3.755216952235957528e+00,-5.146330222980894931e+00,-4.578518383355323351e+00,-4.017722000924077719e+00,-3.673828943911103373e+00,-3.951018408593248488e+00,-4.824595252289248570e+00
5.491877070474682210e-02,-4.259833256737399765e-03,3.821819826904983675e+00,-3.800605376229351240e+00,-3.757411105239379268e+00,-3.777578908358147025e+00,-5.173599566248781478e+00,-4.576512662406694076e+00,-3.995232889706091584e+00,-3.649879975537633214e+00,-3.944216923726904689e+00,-4.840914124837656374e+00
5.845721979898510501e-02,-2.578659086023538105e-02,3.787468106888409292e+00,-3.802354132329888614e+00,-3.758736341929891811e+00,-3.769107271181444840e+00,-5.158625036201977210e+00,-4.573104198004189769e+00,-3.986444122510321542e+00,-3.614995174422593660e+00,-3.898142832482920817e+00,-4.791938607754593349e+00
6.088371386152469089e-02,9.629315841556240763e-03,3.898439086383290952e+00,-3.814599906200706769e+00,-3.809026358182894256e+00,-3.811527052372567503e+00,-5.157164836024711541e+00,-4.554672501541636720e+00,-3.978090894525907029e+00,-3.656178589900705767e+00,-3.966303941078971551e+00,-4.834145825335801838e+00
6.075222506548949575e-02,6.844953640216600022e-02,3.873029957444352966e+00,-3.667525934168261781e+00,-3.714772752968543035e+00,-3.719425439186414106e+00,-5.001868788289746348e+00,-4.411403338352756442e+00,-3.857866953256837927e+00,-3.566994849692552982e+00,-3.875154838957040049e+00,-4.703955055299443799e+00
5.429127863657290387e-02,6.738635569902451383e-02,3.746898014937641186e+00,-3.601699442341265378e+00,-3.661536705889016918e+00,-3.663074406869799127e+00,-4.934105539155535070e+00,-4.358826799595645340e+00,-3.787011665198868116e+00,-3.469404403873133091e+00,-3.757233080592635055e+00,-4.592703860666023097e+00
5.009899802403883218e-02,5.782624585037221543e-02,3.557579121537620015e+00,-3.497045582102157102e+00,-3.541923010664806970e+00,-3.543206068393950137e+00,-4.845103703764131353e+00,-4.354605484082810563e+00,-3.773826801974216494e+00,-3.361662359278519752e+00,-3.576008698127399743e+00,-4.405703387629994694e+00
4.887250273780463505e-02,1.406556094691524539e-02,3.593555294986413351e+00,-3.639824425838821931e+00,-3.637020301313523607e+00,-3.619756051646649819e+00,-4.939204828396745128e+00,-4.400174073620712889e+00,-3.806627635959574985e+00,-3.421692719816989747e+00,-3.672160321381299219e+00,-4.523939515477081841e+00
4.862244050275232876e-02,-5.257527971390008048e-02,3.631723468672315214e+00,-3.730248310060642947e+00,-3.696907027059490591e+00,-3.656430133683190586e+00,-4.958649615287921364e+00,-4.361364220896289723e+00,-3.769051696655726147e+00,-3.443027889950823095e+00,-3.743147532678273048e+00,-4.598438271579063041e+00
4.459777593514624439e-02,-9.188217815777000030e-02,3.659474400608549782e+00,-3.749698824197859715e+00,-3.704861176337086892e+00,-3.657300966164836353e+00,-4.929268400321182853e+00,-4.297273017065895040e+00,-3.709407969365528857e+00,-3.430508081200406068e+00,-3.765460747868475622e+00,-4.618581702895421692e+00
4.465310687954626712e-02,-7.718539885215047747e-02,3.567528071133101442e+00,-3.508964383731564052e+00,-3.495647700661079327e+00,-3.464035203628214710e+00,-4.705869231159431898e+00,-4.161653351355643515e+00,-3.612796562616268137e+00,-3.314961573251719251e+00,-3.598260981937322800e+00,-4.395867802735006435e+00
4.252922680340853745e-02,3.676242473789048670e-02,3.645246173830902325e+00,-3.411061494143920569e+00,-3.444078797708514550e+00,-3.422953853054608420e+00,-4.635108013770212310e+00,-4.110554215863301941e+00,-3.589148761301590440e+00,-3.316828710909910605e+00,-3.594994891679321292e+00,-4.362191295597654062e+00
4.021647815312523466e-02,5.285729959130935907e-02,3.679673631396022770e+00,-3.438608159431046030e+00,-3.474558132525465304e+00,-3.454699310986756977e+00,-4.654152150037464075e+00,-4.105135997550150684e+00,-3.587263745834313511e+00,-3.346207235831383464e+00,-3.645429594128837270e+00,-4.412150284161334923e+00
3.745378230390905561e-02,-1.753722567345961103e-02,3.566994008915449932e+00,-3.491376437761739560e+00,-3.485403602906332221e+00,-3.469998644091433881e+00,-4.683576229003659996e+00,-4.128988431989036201e+00,-3.584303888765161705e+00,-3.307206865893509651e+00,-3.603380079331505392e+00,-4.392583968037141240e+00
4.373355308505377792e-02,-6.189328528016235786e-02,3.394746828685993645e+00,-3.399007124494453080e+00,-3.395522204110568598e+00,-3.382054341008526865e+00,-4.587019900246742665e+00,-4.063459508831692268e+00,-3.516963538091116170e+00,-3.201764090849479771e+00,-3.467862140967843843e+00,-4.248997651720846314e+00
4.769454966456465606e-02,-5.829024860117115736e-02,3.236933988899517001e+00,-3.262015886196872216e+00,-3.270147265250058055e+00,-3.262750914059092899e+00,-4.473590335522085404e+00,-4.019343157398544086e+00,-3.482655348875886681e+00,-3.109788636991238420e+00,-3.316274252734439099e+00,-4.078256170658658419e+00
4.611335966185092783e-02,-7.378443399801315472e-02,3.228369458680355297e+00,-3.227530857311823542e+00,-3.231843339117275171e+00,-3.229128639495436826e+00,-4.414371025838284446e+00,-3.957095335106631584e+00,-3.445777427191781594e+00,-3.121603272411701102e+00,-3.340776028781894169e+00,-4.079277631668831283e+00
3.966302311551705984e-02,-1.206454517904105295e-01,3.227563760977187446e+00,-3.329489177856779225e+00,-3.279829877378807268e+00,-3.275051181793040556e+00,-4.456789218663116614e+00,-3.967262282578928101e+00,-3.438844506666711265e+00,-3.126608713916433580e+00,-3.374048887407685271e+00,-4.134459176083119303e+00
3.767308866930207945e-02,-5.561340084765264979e-02,3.306766315866269679e+00,-3.383853337282429763e+00,-3.347807426867312142e+00,-3.317070104457700452e+00,-4.485214072416353837e+00,-3.960018240062758377e+00,-3.435117135297229840e+00,-3.159510045450838245e+00,-3.434945014986386269e+00,-4.198681507603613028e+00
4.342933604795051750e-02,4.308082073763808140e-02,3.344305309159584016e+00,-3.410134071432156855e+00,-3.397240685928291093e+00,-3.340181771196741867e+00,-4.500450836369775942e+00,-3.950570575144454644e+00,-3.415892391959214791e+00,-3.131910600791403709e+00,-3.409706023502080185e+00,-4.186942007334466531e+00
4.725380107062671087e-02,3.212544519223459183e-02,3.307595492459575848e+00,-3.397016800143259907e+00,-3.376288686622006985e+00,-3.320466769751460490e+00,-4.453963724345809894e+00,-3.879643727976263445e+00,-3.350790571463654111e+00,-3.084836554320148139e+00,-3.370190924502138863e+00,-4.147530183728426856e+00
5.388946383186354883e-02,1.064529520582369049e-02,3.138802696232667166e+00,-3.177002834133634934e+00,-3.167689931258104163e+00,-3.136204959492974176e+00,-4.238323446101744274e+00,-3.737879997600866311e+00,-3.230798827504448578e+00,-2.921182344536775499e+00,-3.147930184475305815e+00,-3.888501373811847017e+00
5.409275201312413461e-02,-3.468727028601437112e-02,3.085894395570393023e+00,-3.072896002358107559e+00,-3.064048242451980375e+00,-3.053826651802661996e+00,-4.140849362158604663e+00,-3.669099746696559805e+00,-3.181247312421136897e+00,-2.884565430015636700e+00,-3.104689125767205127e+00,-3.819532241245090276e+00
5.252448048825064664e-02,2.326189523024124739e-02,3.099848150355770660e+00,-2.913274957237165896e+00,-2.942724393560411045e+00,-2.945369511784054151e+00,-4.009205001272263758e+00,-3.583107714623305906e+00,-3.130894617521618795e+00,-2.858562160102299465e+00,-3.068734297507456965e+00,-3.736358872408443332e+00
3.934659144014185372e-02,4.641051363977677369e-02,3.045912340562066500e+00,-2.863166877966710100e+00,-2.880822111275959774e+00,-2.883273318264258034e+00,-3.952849289422055268e+00,-3.547970189486231440e+00,-3.099679122131920650e+00,-2.814661571501948067e+00,-3.015839798738393807e+00,-3.680634826457043651e+00
3.156390955960775013e-02,1.067173968760438685e-01,3.157052300003764245e+00,-3.037505906513121801e+00,-3.032967643377467049e+00,-3.001483136102069071e+00,-4.101794572956119822e+00,-3.651345448072349065e+00,-3.179595489383798768e+00,-2.913904494317406169e+00,-3.147348281699094308e+00,-3.843779697524599470e+00
3.055227184394448958e-02,6.869415132798484258e-02,3.231618238670128207e+00,-3.295903359852348391e+00,-3.229714958070357689e+00,-3.162444216923063323e+00,-4.288963429873709821e+00,-3.745624120006247448e+00,-3.235027948774781947e+00,-3.002722423679859531e+00,-3.294632366613282404e+00,-4.043120590123201907e+00
3.343702261651448904e-02,5.769388564194533053e-02,3.129136630225814564e+00,-3.187778558413204788e+00,-3.123639832857013854e+00,-3.056567319705995711e+00,-4.152523801593385855e+00,-3.652258392115383501e+00,-3.155615396385727855e+00,-2.897440209081242113e+00,-3.149725774572027071e+00,-3.869018190937478341e+00
3.537308568472752324e-02,6.814957228343432316e-02,3.028661974793196432e+00,-3.027369492071418478e+00,-2.976700496833886600e+00,-2.944095756982537893e+00,-3.937376808323275856e+00,-3.472985313814428654e+00,-2.982987791860110427e+00,-2.690886481808519637e+00,-2.904933734038524396e+00,-3.595848500096012312e+00
4.215912122084464198e-02,2.989792277693359424e-03,3.069734149212732355e+00,-3.068895565334451181e+00,-3.029471146323862385e+00,-2.995324917616323468e+00,-3.940120468730266001e+00,-3.435041730075203859e+00,-2.944601860555591255e+00,-2.702274866164341205e+00,-2.946543016386054870e+00,-3.632071665904313296e+00
4.955574720099353847e-02,-9.879105401096022199e-02,3.022544694212561112e+00,-3.092255439420944274e+00,-3.057687349689645728e+00,-3.004906836902957679e+00,-3.967131426873148126e+00,-3.425323955380612961e+00,-2.936853988145161409e+00,-2.734554162754493589e+00,-3.008655326954755793e+00,-3.693712598214699216e+00
5.134670342718772318e-02,-6.267293422179942564e-02,2.885420006819254812e+00,-2.872382133008684502e+00,-2.889186725617810314e+00,-2.842568987685214932e+00,-3.818380170668366880e+00,-3.349823446662776316e+00,-2.896562682357863849e+00,-2.666869085883766921e+00,-2.892177070572643061e+00,-3.532275757058783938e+00
5.136148788280925359e-02,2.643410611580754299e-02,2.846904134825433363e+00,-2.788423364692259376e+00,-2.813256438170700591e+00,-2.802776974083967865e+00,-3.762917778498035659e+00,-3.334242135789394990e+00,-2.883299555582252705e+00,-2.610020190890036229e+00,-2.800401734585186819e+00,-3.439992196103253796e+00
5.234115158883523300e-02,8.748930670032106782e-02,2.756129871948832299e+00,-2.635230339313447523e+00,-2.686256986905076971e+00,-2.692332430751649408e+00,-3.632166179952875495e+00,-3.265315487494803826e+00,-2.837524338286012693e+00,-2.531095937613185853e+00,-2.673802895343078134e+00,-3.285728756962666530e+00
5.007356375330562770e-02,3.087541403336435675e-02,2.817660305994530212e+00,-2.810379444530624493e+00,-2.828859049222187672e+00,-2.819460282437914689e+00,-3.755230604314147680e+00,-3.298493713779262926e+00,-2.861916493535960893e+00,-2.624925616229971226e+00,-2.840461791683349002e+00,-3.478750367641398888e+00
4.777141236141513314e-02,7.052133076479460971e-02,2.836063015952009714e+00,-2.854980805313718228e+00,-2.870737844246207704e+00,-2.850306016390807162e+00,-3.783147555444276389e+00,-3.304921120047557004e+00,-2.865542554983307344e+00,-2.635627057132222895e+00,-2.871094308588253430e+00,-3.517564855564379034e+00
4.200208943686267737e-02,8.242930823855643130e-02,2.815752931658491054e+00,-2.862131867002805752e+00,-2.881512280171191431e+00,-2.857389184392973736e+00,-3.791165844281012998e+00,-3.310236999593121787e+00,-2.866769548438829140e+00,-2.638315319878241194e+00,-2.882529772999910644e+00,-3.535653048887057892e+00
3.886288772987300799e-02,6.516170627155903894e-02,2.671323862898155710e+00,-2.710293511767599473e+00,-2.743630920036951082e+00,-2.726716179922821670e+00,-3.674921868023553806e+00,-3.276178071256035551e+00,-2.846236726902188874e+00,-2.571481789711454358e+00,-2.762308765231848984e+00,-3.384941186125379531e+00
3.640640057795230256e-02,-3.022419584139024451e-02,2.571301009609654020e+00,-2.679254466319248795e+00,-2.698844631397853799e+00,-2.678913237207291687e+00,-3.648041629769999794e+00,-3.273544267385966933e+00,-2.849139855188846937e+00,-2.571832881046964836e+00,-2.753257859428849486e+00,-3.360796292930505302e+00
1.946257772722437274e-02,-1.085076933355093587e-01,2.509282157115698464e+00,-2.717309382606724277e+00,-2.700625152666046080e+00,-2.688142397148306273e+00,-3.666727473348861732e+00,-3.286861216677521735e+00,-2.850672460549578791e+00,-2.566017973045328304e+00,-2.756961858707277724e+00,-3.377373575471301237e+00
1.065652995347277088e-02,-1.373594502898934921e-01,2.576531111506674243e+00,-2.733344083091517884e+00,-2.728658321233007555e+00,-2.717412844767860047e+00,-3.648469517974937570e+00,-3.229354217174285946e+00,-2.809210514493368560e+00,-2.591751725744851242e+00,-2.823240004004232251e+00,-3.431975197698287516e+00
6.528321529637559628e-03,-7.888814074063654758e-02,2.583244649553734007e+00,-2.580491903906689366e+00,-2.617452769296025217e+00,-2.623396812010703183e+00,-3.482696194594646411e+00,-3.082364615128215135e+00,-2.691418741823569771e+00,-2.499826694291779283e+00,-2.721907182980225048e+00,-3.293066778052973209e+00
4.516098387648326273e-03,8.699159631290531713e-03,2.461451126460830086e+00,-2.342237003215601021e+00,-2.418476706781110597e+00,-2.430789065964891638e+00,-3.271402623413985911e+00,-2.951393929169808139e+00,-2.581177464845577418e+00,-2.339918914288613205e+00,-2.495842447484367010e+00,-3.028666098274634066e+00
2.819004511753098186e-03,8.560966769959865719e-02,2.594317632532754825e+00,-2.462025985027519237e+00,-2.546011095681397496e+00,-2.531201525314935807e+00,-3.363655159803003336e+00,-2.955620684074954596e+00,-2.570247517740131382e+00,-2.400037861789665605e+00,-2.623173859027234212e+00,-3.181592289023398745e+00
1.417877462062111515e-02,1.269357809022892969e-01,2.720679221677967607e+00,-2.651991965812917407e+00,-2.711633611859579407e+00,-2.665016916294300486e+00,-3.525366212480788519e+00,-3.055162125546257990e+00,-2.647598660773671675e+00,-2.504132731644585608e+00,-2.767175019246940426e+00,-3.360969828751546817e+00
2.605156351380566448e-02,1.499598415075432678e-01,2.689012745286597283e+00,-2.679858758155062137e+00,-2.707648003662244562e+00,-2.663967151103997288e+00,-3.546022138430836801e+00,-3.097655222890341342e+00,-2.681411395242403461e+00,-2.492294086121919161e+00,-2.730787373339321089e+00,-3.333907693558088692e+00
2.043492088617471225e-02,1.015667252137689713e-01,2.459006631829338652e+00,-2.512105102196701356e+00,-2.502598141551124478e+00,-2.496634928444749768e+00,-3.405671397263239086e+00,-3.068092745609033223e+00,-2.663010725736542295e+00,-2.378719412567920077e+00,-2.536953895707103612e+00,-3.116471170927597178e+00
2.153857261503000498e-02,4.775305311887956261e-02,2.383785475540282306e+00,-2.439839679669894679e+00,-2.430028022318122538e+00,-2.435932778061192128e+00,-3.341657291047373857e+00,-3.018949336156393493e+00,-2.627984231379934421e+00,-2.356298594136643665e+00,-2.512962601789621608e+00,-3.075700931665431348e+00
2.535145157416207606e-02,-2.138237437084389292e-02,2.341669445494002577e+00,-2.380415016417146479e+00,-2.388322920573712427e+00,-2.389448739827236601e+00,-3.266788437422798896e+00,-2.943892364020234353e+00,-2.568911988351390896e+00,-2.324530694773123685e+00,-2.487424514934260866e+00,-3.031352569739081293e+00
2.461235644567172365e-02,-3.311591757790699475e-02,2.393819376015980271e+00,-2.404291087254468717e+00,-2.426748978097942988e+00,-2.418589304019128861e+00,-3.260794807383265770e+00,-2.883194041936773644e+00,-2.509831872155747767e+00,-2.320484681374827218e+00,-2.531284533627407907e+00,-3.075148370375308193e+00
2.392308004266729959e-02,5.166591391603370109e-02,2.398121816822065266e+00,-2.279080895794627359e+00,-2.344836925749868239e+00,-2.340839038752372314e+00,-3.132682726945209328e+00,-2.772254119398921191e+00,-2.412258171653523853e+00,-2.222644698335466629e+00,-2.423391793224482615e+00,-2.941433193961343839e+00
3.145705117639252535e-02,1.206562791093254150e-01,2.457330975291722286e+00,-2.255661977888206327e+00,-2.352952608663150702e+00,-2.342214121809537808e+00,-3.094614039584346887e+00,-2.715036479796555380e+00,-2.359193427796246301e+00,-2.191796217671019509e+00,-2.403478825996372858e+00,-2.912107646868946187e+00
3.309931858885206690e-02,-4.875782196822830983e-03,2.352317750637687777e+00,-2.262156349015397971e+00,-2.329190584898198857e+00,-2.314184397514771341e+00,-3.061390683375727395e+00,-2.670037679220629290e+00,-2.316708903482262549e+00,-2.165495258636418452e+00,-2.382816843918194927e+00,-2.892204346247694513e+00
2.626587728652152176e-02,-1.158470651714956778e-01,2.190916607342179745e+00,-2.235614279412597494e+00,-2.246340461076431261e+00,-2.244856532558855200e+00,-3.028779514728048738e+00,-2.669174188745132348e+00,-2.320816557866799190e+00,-2.148050165308607262e+00,-2.343147277355750902e+00,-2.850536784336504148e+00
2.434708132611707043e-02,-9.135398226690150114e-02,2.075612491033448137e+00,-2.187322932530428421e+00,-2.160348797280800426e+00,-2.173629048010863762e+00,-3.011620667949648222e+00,-2.714817418080151867e+00,-2.366028852044844921e+00,-2.122199078079030077e+00,-2.261982208410461048e+00,-2.771567879786139610e+00
2.974457423510645793e-02,5.412772465293813617e-02,2.185859106964725740e+00,-2.273585965058954717e+00,-2.251179068408302619e+00,-2.261577160771980566e+00,-3.098199636488358166e+00,-2.773628473325957522e+00,-2.403030052965041019e+00,-2.142901221224446928e+00,-2.289716160186939131e+00,-2.828146642290158663e+00
1.458931089067716513e-02,8.667605117020438232e-02,2.180916120631849253e+00,-2.205445541784771368e+00,-2.205483868290690097e+00,-2.219208276274861280e+00,-3.005236480526369824e+00,-2.656713336062397346e+00,-2.299792788876864780e+00,-2.091827732470024959e+00,-2.265287441242425537e+00,-2.786637059689907048e+00
8.848992854781689843e-03,4.188245501032783480e-02,2.158167270424284023e+00,-2.087625494323637643e+00,-2.105700170751041433e+00,-2.123586664732630691e+00,-2.859053724054398060e+00,-2.522014434832314578e+00,-2.203798468790572063e+00,-2.057413744381290766e+00,-2.240085574376786681e+00,-2.713016396086438409e+00
1.363348906430872365e-02,-7.783318926277593697e-03,2.154160053050723445e+00,-2.115257397747583479e+00,-2.111437689052201971e+00,-2.119605307638685598e+00,-2.870016004629492024e+00,-2.527823447176765548e+00,-2.215297883273919854e+00,-2.082604750960341367e+00,-2.271493399389082235e+00,-2.740881275812971918e+00
2.132293870465817864e-02,6.093790391983744392e-02,2.156372264894445667e+00,-2.116863298877453836e+00,-2.109553099937337528e+00,-2.109135828877673813e+00,-2.883203085116386344e+00,-2.573126202896147241e+00,-2.253132335203750003e+00,-2.067688162216850145e+00,-2.221631584028715078e+00,-2.696702770565088780e+00
3.885953276659748212e-03,1.583707345384528509e-01,2.129179047690184401e+00,-2.070098058798456986e+00,-2.073000657399857616e+00,-2.078149220165685929e+00,-2.826297153099154524e+00,-2.520741421075338273e+00,-2.194945410737363378e+00,-1.991597927041043770e+00,-2.139079616772451065e+00,-2.615506078134450796e+00
-5.485975227359496387e-05,9.905570801004848214e-02,2.136559446309701293e+00,-2.151082794794440201e+00,-2.130436224592476169e+00,-2.127027336846051941e+00,-2.837603529430793081e+00,-2.476159158342817079e+00,-2.141443683539417719e+00,-1.982488325636458049e+00,-2.173471977627861929e+00,-2.661413936846831696e+00
1.435415781350690700e-02,-1.047735123985492622e-01,2.068825958033910339e+00,-2.237048485555979127e+00,-2.174480799109140605e+00,-2.150635936661855041e+00,-2.863786381446336460e+00,-2.476849508807139166e+00,-2.134676494134303493e+00,-2.002374211129211545e+00,-2.212911180526591970e+00,-2.707385961926087159e+00
2.835793174889922330e-02,-2.023791124914690043e-01,1.925434118936397709e+00,-2.102209025969135059e+00,-2.059436723876990616e+00,-2.024054486607619108e+00,-2.756334064955348051e+00,-2.439231153395720497e+00,-2.115979197344250107e+00,-1.955837283967887696e+00,-2.116880474873092499e+00,-2.582560294505260146e+00
3.059507746564960051e-02,-1.358329278039704935e-01,1.913681312307970783e+00,-1.995613685511507640e+00,-2.007740017364681329e+00,-1.972179925469195849e+00,-2.696000288285135493e+00,-2.403182480060850779e+00,-2.098951122594963081e+00,-1.942472625308438117e+00,-2.088618237654546572e+00,-2.534424630403163903e+00
2.905884813411463430e-02,-1.186803134568049645e-01,1.790950140212282715e+00,-1.879149857385230993e+00,-1.901006545435905526e+00,-1.877158096521243102e+00,-2.600907556516103725e+00,-2.354386672384626955e+00,-2.055751674881254321e+00,-1.847825838641850016e+00,-1.955763037226972756e+00,-2.392713856634943959e+00
2.672823695134862731e-02,-1.736829689262548992e-01,1.793005123935708101e+00,-1.891626568433589561e+00,-1.889416942070027305e+00,-1.879948280143408201e+00,-2.569222947513723820e+00,-2.303471859449942372e+00,-2.021641648585657869e+00,-1.858394613912149440e+00,-1.993942680711045634e+00,-2.412564497935315355e+00
2.339456771262649060e-02,-1.923294626168389199e-01,1.712287266621450144e+00,-1.865087948532806905e+00,-1.839545860158297463e+00,-1.833640847818032160e+00,-2.499121845212296744e+00,-2.233315448978449247e+00,-1.944536291708021780e+00,-1.768634664953255387e+00,-1.901795857184269245e+00,-2.320321344461598656e+00
1.676507668890714342e-02,-9.276076570357139062e-02,1.811700652768964970e+00,-1.990159952634108498e+00,-1.957177575702565786e+00,-1.936230803064676653e+00,-2.606532329257771785e+00,-2.281242407401169459e+00,-1.971691178721824755e+00,-1.821448516252769600e+00,-1.987561184088244115e+00,-2.439778581952003922e+00
1.602414816599284642e-03,-2.170799865411543461e-02,1.787982142216320014e+00,-1.973210300693085228e+00,-1.941862852019166530e+00,-1.918525388568025347e+00,-2.604685359864967076e+00,-2.306359961494636845e+00,-1.991554227188011783e+00,-1.804417714846006771e+00,-1.943158481254306347e+00,-2.403645432874027321e+00
-1.361905968685905854e-03,-3.952406045184331251e-02,1.772058724987239486e+00,-1.893009863312015151e+00,-1.876624337423469679e+00,-1.857291043178515677e+00,-2.495337087892523176e+00,-2.200785038084343004e+00,-1.908794514907941053e+00,-1.754459291230473283e+00,-1.901648392105927288e+00,-2.331731204616529940e+00
1.445378005111175312e-02,-8.583915548073506319e-02,1.727213537376870889e+00,-1.753819915037228672e+00,-1.755146773963520257e+00,-1.736259925252446656e+00,-2.316433742701618392e+00,-2.039240810436149687e+00,-1.777561877769649135e+00,-1.654931088449532295e+00,-1.803253393667692439e+00,-2.185167553601875756e+00
2.998609491415682449e-02,-4.095176049369486648e-02,1.721468302706008036e+00,-1.717680909304554859e+00,-1.713522826150893685e+00,-1.684940124793973926e+00,-2.284820720256218074e+00,-2.028948929425018477e+00,-1.766379810412292084e+00,-1.620186630275407325e+00,-1.750308869626760577e+00,-2.130572493530904499e+00
3.305534074823834878e-02,4.240185765540194218e-02,1.859384361754947479e+00,-1.831020524448173870e+00,-1.837145138233372776e+00,-1.786430741890883578e+00,-2.388326259497699944e+00,-2.072521972817761515e+00,-1.795969430606618511e+00,-1.695713373476337660e+00,-1.874839153755229360e+00,-2.278552267793954034e+00
2.970676867138311028e-02,2.249370174649090171e-02,1.764581788373375204e+00,-1.823460983975276672e+00,-1.816095187444798587e+00,-1.757967605106726561e+00,-2.369472228237980538e+00,-2.057326953654797563e+00,-1.765231450608877761e+00,-1.637810686958528272e+00,-1.810291253321681060e+00,-2.226469196271772422e+00
2.743808959291338390e-02,2.485781101636008739e-02,1.696230991135768251e+00,-1.789497114688129109e+00,-1.766326145246471135e+00,-1.720643011877964090e+00,-2.347429266698089378e+00,-2.062724166327589703e+00,-1.772499725548198679e+00,-1.617581127221268567e+00,-1.767470853657265417e+00,-2.179638460698185121e+00
2.761623006056612706e-02,3.258178341871731387e-02,1.661486014346358120e+00,-1.719079538542014340e+00,-1.686787111712964693e+00,-1.666373057402088520e+00,-2.296388050348522114e+00,-2.049088564893268849e+00,-1.781149816193205782e+00,-1.619723581833837356e+00,-1.744652314293186901e+00,-2.132749105928131161e+00
3.048449616534965045e-02,9.250432351491955085e-02,1.674340357606685981e+00,-1.602453685503897329e+00,-1.617746960704375070e+00,-1.615585675786267439e+00,-2.176124682053353077e+00,-1.929870401409314429e+00,-1.682236312076748286e+00,-1.552487293617579311e+00,-1.679110219675558735e+00,-2.037477641639882542e+00
2.962774023004477453e-02,1.233963175756946917e-01,1.664358822385831438e+00,-1.582405216138129012e+00,-1.615718803233028744e+00,-1.617835566819913140e+00,-2.167185336772484927e+00,-1.920086240639320430e+00,-1.667458265640364257e+00,-1.528858067480753702e+00,-1.647859675975153149e+00,-2.006497642538180859e+00
2.629110117309862993e-02,1.176353851021543218e-01,1.623518793393593063e+00,-1.628398030056221968e+00,-1.651693827196802911e+00,-1.652633541499248571e+00,-2.217374038068125497e+00,-1.955572022583159875e+00,-1.676734485398651664e+00,-1.503435889749594079e+00,-1.617635202583542986e+00,-2.004809150744172097e+00
2.723986962176294657e-02,1.151807300892688790e-01,1.602278610022948024e+00,-1.535382852919144447e+00,-1.581219225425082975e+00,-1.591414821917377154e+00,-2.126265755440774008e+00,-1.886285161350710116e+00,-1.623927553833594883e+00,-1.452479941604870595e+00,-1.552976456003911654e+00,-1.915728180552741300e+00
3.113201390626285647e-02,1.413088054334891153e-01,1.627203286428135387e+00,-1.390933282429607898e+00,-1.498030999666422058e+00,-1.512065064725342856e+00,-1.963985684559823808e+00,-1.714409478224058425e+00,-1.475298092978217346e+00,-1.354348816818006895e+00,-1.475141873995224673e+00,-1.802734264391581132e+00
3.264266753139721811e-02,1.613824940001548081e-01,1.674590201984179627e+00,-1.295408082593583643e+00,-1.439210415528179521e+00,-1.448176063290915083e+00,-1.886801491260574393e+00,-1.656004095845260427e+00,-1.442429335724837447e+00,-1.359948821876798108e+00,-1.487769095675929076e+00,-1.781361746335361484e+00
3.076212903264707865e-02,1.169301210657978096e-01,1.570226617206019082e+00,-1.213431050223328311e+00,-1.348479779381883681e+00,-1.344348167678775408e+00,-1.810640441402695533e+00,-1.629492837621009826e+00,-1.418930390662474839e+00,-1.302455945404447091e+00,-1.401195504350438270e+00,-1.690945563669055129e+00
2.602553660036754923e-02,8.435444848586581834e-02,1.668632937667481109e+00,-1.439629644527621100e+00,-1.517166320505060284e+00,-1.481336363968337011e+00,-2.016459396886195243e+00,-1.772826283429115968e+00,-1.541807997499330174e+00,-1.470701688688135444e+00,-1.620628346168055511e+00,-1.955652412475665125e+00
2.244229203672054584e-02,2.778963980646931287e-02,1.640087172097946855e+00,-1.589898151079920163e+00,-1.597437827174879033e+00,-1.548479312343242986e+00,-2.126176332944392122e+00,-1.845688791502971604e+00,-1.587169595611974460e+00,-1.508893137057175871e+00,-1.680039752060425995e+00,-2.054289624697187566e+00
6.501756193211138957e-03,3.421752204680050813e-02,1.558167652633631661e+00,-1.498198446694824826e+00,-1.483733252679010128e+00,-1.473857458695427392e+00,-2.009935182653021624e+00,-1.768505367804793282e+00,-1.530725646258436434e+00,-1.433522572403507445e+00,-1.584099298423851332e+00,-1.930326646877609686e+00
1.374940776906807827e-03,4.628724393383587543e-02,1.365315868706496572e+00,-1.209211335309183344e+00,-1.240394852861898878e+00,-1.263162968548194653e+00,-1.717889494903473979e+00,-1.574471380721256031e+00,-1.377329404763893983e+00,-1.226459377664864014e+00,-1.304951817266825298e+00,-1.590278642672407816e+00
6.868092186711916014e-03,5.623319416097305457e-02,1.478551946490876290e+00,-1.366815418313711117e+00,-1.403691726056343292e+00,-1.408582027531225078e+00,-1.863740475731981094e+00,-1.647362076056710922e+00,-1.440507467316618939e+00,-1.340050862044673163e+00,-1.465072412729818474e+00,-1.774949647536434805e+00
1.617721461274401751e-02,3.253988119483819386e-02,1.368005315139275924e+00,-1.337186965814016082e+00,-1.375141370568279120e+00,-1.362575001912664341e+00,-1.836343304993304892e+00,-1.635491633961363434e+00,-1.415752609010695551e+00,-1.276474205737840650e+00,-1.373315784893326175e+00,-1.690823568853597747e+00
1.593039081851121974e-02,1.173103707735811962e-02,1.365856989850878334e+00,-1.333914472166481069e+00,-1.357127353645240619e+00,-1.353956490158227277e+00,-1.801431864585613996e+00,-1.580106027482378606e+00,-1.374507889820892892e+00,-1.275400962087413159e+00,-1.394244016153151966e+00,-1.698934671749354752e+00
1.157611007373438028e-02,-4.002835482794830924e-02,1.261163080518474588e+00,-1.257313960896070171e+00,-1.263319020055338804e+00,-1.270579201512593626e+00,-1.714178588054789509e+00,-1.517444979509924297e+00,-1.324616928623037371e+00,-1.224403358739952541e+00,-1.332138427156455363e+00,-1.617948472155828377e+00
1.358070767643704269e-02,7.104143528759987447e-04,1.229288956465365956e+00,-1.263144248638181866e+00,-1.255223752656390523e+00,-1.257633431495188248e+00,-1.754687671775823299e+00,-1.604523697096516655e+00,-1.398972961717551033e+00,-1.230039429237564930e+00,-1.294604477621319027e+00,-1.590175041607332806e+00
1.502193769339221774e-02,1.265350412323775764e-01,1.330765761059694352e+00,-1.308422984199218764e+00,-1.340189736695346800e+00,-1.321173786036726083e+00,-1.803124959863939392e+00,-1.609745020261093895e+00,-1.380152175078632082e+00,-1.215434727823422545e+00,-1.305133910235720451e+00,-1.622595280894909120e+00
7.603881259833245032e-03,2.141306135825691292e-01,1.511504668583048439e+00,-1.351185475562758587e+00,-1.407397772150841497e+00,-1.399927460308471039e+00,-1.810658658064872695e+00,-1.557463578627676482e+00,-1.338129953852686294e+00,-1.248571751272727681e+00,-1.388476603591284553e+00,-1.702716617328456472e+00
-9.720386289982396733e-03,1.741283812719395252e-01,1.450514439201348926e+00,-1.185698707369243543e+00,-1.248221080256513238e+00,-1.276585266754228121e+00,-1.637923803493318786e+00,-1.407218295503543715e+00,-1.226977588877714576e+00,-1.182115967443003957e+00,-1.321381182457140646e+00,-1.594129144864778747e+00
-1.263783418348940479e-02,1.384013896719321624e-01,1.249077729870311071e+00,-8.458330940766023431e-01,-9.311144262274878569e-01,-9.889130160260917179e-01,-1.348835098831690393e+00,-1.251182820323506029e+00,-1.130198379668460484e+00,-1.053211375747749479e+00,-1.108515894014908909e+00,-1.303559478698324225e+00
2.740625878340452459e-03,6.901721326465171114e-02,1.204433891852631389e+00,-8.838714902168853804e-01,-9.474437394848511662e-01,-9.806424729916785044e-01,-1.367185205833164607e+00,-1.255554242694467248e+00,-1.123960677347061399e+00,-1.043926799239652370e+00,-1.107331565266916673e+00,-1.312084388412393832e+00
1.728218131311831662e-02,2.353515213738488487e-02,1.287122448991439239e+00,-1.143378135406785567e+00,-1.174712861317740442e+00,-1.158675252752383367e+00,-1.544016390763409241e+00,-1.329696501748321547e+00,-1.158045786577472924e+00,-1.102353367024045738e+00,-1.225886732915263178e+00,-1.486693455433077737e+00
1.123996455551923290e-02,-4.634687912464574566e-02,1.208332656470057387e+00,-1.283528765788793269e+00,-1.277018996045178767e+00,-1.230798353000357670e+00,-1.632361368631247256e+00,-1.374382168076901944e+00,-1.164187372738871851e+00,-1.085799665659868518e+00,-1.227682678002558481e+00,-1.535069386569750005e+00
7.318488181495941269e-03,-8.499670699686934228e-02,1.078697010126514977e+00,-1.183053659341598340e+00,-1.173619606671032267e+00,-1.132794535120601465e+00,-1.537841551368905879e+00,-1.336657912389588088e+00,-1.140919546310097399e+00,-1.036725557988467994e+00,-1.139737225500522921e+00,-1.422511888967177729e+00
1.083182866573861869e-02,-1.577026879915524038e-01,9.882950636054921301e-01,-1.101467917098208238e+00,-1.068515300115975952e+00,-1.049292893740402910e+00,-1.461941291511195784e+00,-1.307642337711805824e+00,-1.137016804424601846e+00,-1.032516233024496799e+00,-1.109133898067480306e+00,-1.360914446078665740e+00
2.218492784424264119e-02,-1.194123340560120372e-01,9.324108170596172585e-01,-9.365844702913245223e-01,-9.389698295069714984e-01,-9.303381745990397800e-01,-1.300527188432604397e+00,-1.187019244456140266e+00,-1.045582457168764190e+00,-9.386547265672489093e-01,-9.865594116758518162e-01,-1.195720968158688446e+00
7.277758343175788625e-03,-7.194323213054243382e-02,9.499901249246788248e-01,-9.755735796900242285e-01,-9.609606541699821092e-01,-9.630819899467196743e-01,-1.325301595136612054e+00,-1.192473299281600951e+00,-1.043772898232551816e+00,-9.369645165328371883e-01,-9.974655839242188016e-01,-1.218745262940207352e+00
-1.423507054794559412e-02,-1.638315323450649785e-01,8.584529895255956777e-01,-1.018990444214475710e+00,-9.490975708059423699e-01,-9.569778590302665533e-01,-1.307825625016421967e+00,-1.143332291154036895e+00,-9.962818339231835907e-01,-9.123364885867368823e-01,-9.917823994533002674e-01,-1.223024264748151735e+00
-1.905751129819654999e-02,-2.782379716142933113e-01,8.248488945484733215e-01,-1.103452486868247373e+00,-9.807030717364658701e-01,-9.779777259915660714e-01,-1.332556955635850304e+00,-1.126007572035459869e+00,-9.854716881091414304e-01,-9.502981321634105250e-01,-1.060402399870350232e+00,-1.294575542772408383e+00
-1.320901993910938987e-02,-1.606957509484912006e-01,7.746355165198903769e-01,-9.691641420912000537e-01,-8.795413036915978866e-01,-8.704549498243783212e-01,-1.200556133644629764e+00,-1.033690198653247627e+00,-8.966520058043103703e-01,-8.238323076182725302e-01,-8.954559459282800393e-01,-1.109168932702094157e+00
-5.623672701746129654e-03,3.335583167017963646e-02,1.083810278491878609e+00,-1.188791647111746119e+00,-1.096085794479708664e+00,-1.090219476382422892e+00,-1.401262344830065842e+00,-1.148054409730397740e+00,-9.859817866349304127e-01,-9.592391913657729585e-01,-1.098204638139301137e+00,-1.351053325182504317e+00
3.014982995441450875e-03,4.046337826992107978e-02,1.072532687138386676e+00,-1.162818334333265646e+00,-1.070891161708738437e+00,-1.075349671606305568e+00,-1.387664141423156305e+00,-1.148980440886523624e+00,-9.909608904568518728e-01,-9.546887873253575574e-01,-1.087249476658321390e+00,-1.338728480883855099e+00
2.117205810398148369e-02,7.906771356496977710e-03,9.627475451668964235e-01,-9.917212608551388975e-01,-9.508531908182517034e-01,-9.640225485309399378e-01,-1.271087062254685485e+00,-1.091168455486725142e+00,-9.470361405747940164e-01,-8.857500917860267053e-01,-9.815258715040785509e-01,-1.204103748577733501e+00
2.828776405206923084e-02,5.909413140757979743e-02,7.888528829199461523e-01,-6.277712485074746773e-01,-6.896906377228202434e-01,-7.222829236361431038e-01,-1.013036719358175297e+00,-9.584492995850610875e-01,-8.544767351679882772e-01,-7.510911657354627513e-01,-7.654652495619689301e-01,-9.163570021314703107e-01
2.704178445376415052e-02,7.013222038067712383e-02,7.516854582059366852e-01,-5.576685992855135998e-01,-6.387951821960565768e-01,-6.864831096201311489e-01,-9.758642109084987304e-01,-9.436237454342877307e-01,-8.469727944314016099e-01,-7.445982343793010605e-01,-7.497775030808171426e-01,-8.891022932144652113e-01
1.260336407211304355e-02,-8.706230665770253729e-03,7.300797864744082988e-01,-7.138651722958029300e-01,-7.354878548826129236e-01,-7.791593233108874417e-01,-1.107462515366119726e+00,-1.038438521075759180e+00,-9.127906476976974659e-01,-8.151642267825061072e-01,-8.474027177397386312e-01,-1.026275599876429023e+00
1.535193632635545313e-03,-6.762973296521535005e-03,7.222252913271949293e-01,-8.043400365686019793e-01,-7.997222784456811118e-01,-8.246105532325014309e-01,-1.162610337162815144e+00,-1.071757029340280498e+00,-9.225426183025264848e-01,-8.123378915991150695e-01,-8.541268833888122636e-01,-1.060791391516237026e+00
1.447919909993489185e-03,1.023553478692045271e-01,9.242588529665097807e-01,-8.800016659917769823e-01,-9.277870196128330527e-01,-9.217669970359529952e-01,-1.178252274385452436e+00,-9.894613662826156064e-01,-8.493018957344049547e-01,-8.461042988827476297e-01,-9.685596452897666797e-01,-1.174530460766202378e+00
1.276639382073962992e-02,1.559041234105525975e-01,9.294844416230875206e-01,-8.081645497588144655e-01,-9.016702374909147943e-01,-8.688045486234959869e-01,-1.093552031625519838e+00,-8.992826383868853801e-01,-7.700240396126742937e-01,-7.799376179800151521e-01,-9.033870840148015002e-01,-1.091996019639157822e+00
2.021837395803538495e-02,8.897797784724559289e-02,8.710708165041021189e-01,-8.221502548670370780e-01,-8.896461171302952886e-01,-8.585786356321049029e-01,-1.105389397053592182e+00,-9.248764602889131270e-01,-7.892204119352295155e-01,-7.774182346896268969e-01,-8.882327470441262474e-01,-1.081013003463638711e+00
2.474203485522230572e-02,2.491572568143463062e-02,6.937690510079074224e-01,-6.877171684765541748e-01,-7.192933567845610776e-01,-7.176351376109376679e-01,-1.018165472909511537e+00,-9.492578664887307838e-01,-8.260100529088197918e-01,-7.242030964605302712e-01,-7.500204463845954184e-01,-9.224668817823361566e-01
2.593701478045129516e-02,4.286418672555880605e-02,6.809438279257734594e-01,-5.553980555826247834e-01,-5.947631804614779139e-01,-6.254322405911744154e-01,-8.887458617571726283e-01,-8.420862749556053961e-01,-7.587924647115200649e-01,-6.902836166332563250e-01,-7.157976050550006741e-01,-8.477229738373024404e-01
2.535475247141993904e-02,3.404157609649682836e-02,7.116146914594934092e-01,-5.983650029094222944e-01,-6.121251291005483930e-01,-6.561869763238838971e-01,-8.967329521596867359e-01,-8.032903970406219951e-01,-7.177702435934071312e-01,-6.931981824821907834e-01,-7.563656029274049564e-01,-8.941386686715708798e-01
2.479619172800540117e-02,-4.725452001465857421e-02,6.887672029386497918e-01,-6.690615243205109142e-01,-6.451409710033294553e-01,-6.911361076038475826e-01,-9.244748125395785276e-01,-7.981953402163816103e-01,-7.064799817519030745e-01,-7.063509388008786249e-01,-7.942040864941036782e-01,-9.405411114355602953e-01
2.221658439360729709e-02,-1.105322642343882222e-01,5.202593226894209888e-01,-6.123020701469082949e-01,-5.659597207887225867e-01,-6.117347334355782706e-01,-8.710350153191593892e-01,-7.986206679397973573e-01,-6.981842359770150663e-01,-6.271832154636980405e-01,-6.651488236984171021e-01,-8.140669568880249951e-01
1.761024682539491515e-02,-1.181165398631552899e-01,4.637758375991503090e-01,-5.207149600875460305e-01,-4.908383270537934884e-01,-5.340814055677221006e-01,-7.743452232266757607e-01,-7.330868839642225021e-01,-6.610640446890212463e-01,-5.996607918637757439e-01,-6.230275621208497538e-01,-7.375037233221787281e-01
9.845647403355139993e-03,-8.782691003009612807e-02,5.278373063633544637e-01,-6.358077572845363123e-01,-6.032677291057981783e-01,-6.300027042310950565e-01,-8.453707586698995247e-01,-7.386412222980107689e-01,-6.484333225705245507e-01,-6.212836844456499641e-01,-6.900646427687531226e-01,-8.308136762902513794e-01
1.107194198257421824e-02,-3.082503598043773163e-02,5.760752390751482377e-01,-6.623392762200110973e-01,-6.597680512538706132e-01,-6.642511736388332366e-01,-8.427676481190436997e-01,-7.087550255230848917e-01,-6.149857027117164865e-01,-6.110047168151344632e-01,-6.980083301605201074e-01,-8.399822840725681417e-01
1.568256996082351140e-02,-3.449674674371316918e-02,3.743858789619849414e-01,-5.102687277207991201e-01,-5.079639201022960737e-01,-5.045497492269184203e-01,-7.030130441937694208e-01,-6.692072489104997635e-01,-5.703293284064701041e-01,-4.598417905428904273e-01,-4.583108216035471916e-01,-5.887294203242143809e-01
1.639120815287431476e-02,-1.829414720791078253e-02,3.643732317682177868e-01,-4.622613792620247630e-01,-4.640503426813448185e-01,-4.460294756510915226e-01,-6.433352714701916497e-01,-6.338176932733258218e-01,-5.529498594640749332e-01,-4.497510344295599927e-01,-4.341084877806227205e-01,-5.447409869322930032e-01
1.255490792733759964e-02,6.434065013511292008e-03,5.902517957142583427e-01,-6.688397684590671188e-01,-6.659063088724571644e-01,-6.142641991939180590e-01,-7.771151529608749664e-01,-6.302334782287634107e-01,-5.457034150503037306e-01,-5.798878018260688050e-01,-6.784672872602039995e-01,-8.105467065155465001e-01
7.878768832305427239e-03,5.279630899298015656e-02,6.795510813506397962e-01,-7.120855784489640294e-01,-7.285957708856207748e-01,-6.567695618376119260e-01,-7.914377817526523362e-01,-5.952659106917469467e-01,-5.139713092559053953e-01,-6.041643137476870873e-01,-7.482675655493427058e-01,-8.763712463436907907e-01
6.787326109895741588e-03,3.137635256715598508e-02,5.273340849336392022e-01,-6.321624161401407926e-01,-6.241004919791046657e-01,-5.680255003022123272e-01,-7.381676435044668416e-01,-6.141670594952041151e-01,-5.261841048804559717e-01,-5.288665839019631720e-01,-6.128255396104935748e-01,-7.391200218879545591e-01
9.587689032195312322e-03,-4.355900383824284905e-02,1.787720697453654972e-01,-3.393578053770779368e-01,-3.148025407648291085e-01,-2.888728268124811094e-01,-5.008069112707824733e-01,-5.522707543989859857e-01,-4.838607933443562770e-01,-3.309880426830841271e-01,-2.759816744799717947e-01,-3.623912307748031747e-01
1.401162627556007401e-02,-7.577026033657319193e-02,3.817974495615531483e-01,-5.427873907834145362e-01,-5.168391473618298981e-01,-4.821225483122865141e-01,-6.484544935849864133e-01,-5.510272807871781087e-01,-4.794341516979437334e-01,-4.755691720041745896e-01,-5.449014267949576773e-01,-6.537554849309054061e-01
1.501855347425540277e-02,-9.575488407884391595e-02,3.582393924478882163e-01,-5.101347257038157945e-01,-4.915544244641747995e-01,-4.605272113209731843e-01,-6.027578330380389815e-01,-4.906538672318986882e-01,-4.193947666842100519e-01,-4.389145476630074150e-01,-5.226271700984177482e-01,-6.258705545013294458e-01
1.753783621915960822e-02,-1.150198631384335979e-02,3.273763737779869509e-01,-3.826739523322879588e-01,-3.841923474716156806e-01,-3.740563892495875065e-01,-5.221160674299143434e-01,-4.754909181556866704e-01,-4.134703938513787369e-01,-3.970298312643849026e-01,-4.326255351569359697e-01,-5.087995946784683587e-01
