mean,std,kurtosis,skewness,peak_freq,total_power
16.399850976884185,16.01263965866021,-0.8741721802804348,-0.8701613294841519,-0.022437668293747073,22.70589311338953
17.72959489159612,17.464630900768064,-0.667751262972899,-0.9099892552266661,-0.022437668293747073,24.621333751668583
17.541390396797052,17.691538833616338,0.05433161914973835,-1.0214667922519256,-0.022437668293747073,21.92574404324778
15.645329665228696,16.228723728331207,0.052383035149810596,-1.011027565978382,-0.022437668293747073,19.673023321440333
15.315998077916868,15.918923314453139,-0.5693317551023351,-0.9120585858162154,-0.022437668293747073,21.79375015567651
15.927310398296822,16.06694936965275,-0.726768163075998,-0.8878235038862063,-0.022437668293747073,22.26305097538622
17.184557049290245,16.823595175016486,-0.12682852623723395,-1.0000035725780134,-0.022437668293747073,16.73154366795938
17.73556398350389,17.63000191892957,0.1358351829591532,-1.0394496145791876,-0.022437668293747073,14.173243472926096
16.93215406839599,17.20860454709935,0.30070768123184,-1.0617783125797775,-0.022437668293747073,14.719737328490647
16.467772871463435,17.15889751528019,0.46609142739978676,-1.0835200664033926,-0.022437668293747073,14.204622879794032
17.062192791314704,17.82114604132698,0.0735136179513158,-1.016294296665533,-3.982198346742431,9.0837219818228
17.83960591330614,19.288227457118975,-0.9853599328619022,-0.8153816457694291,3.937323010154937,9.27490604385314
11.754456905438444,12.605965762408172,-1.6142976282602761,-0.674881004116698,3.937323010154937,4.09860755272225
4.181318971897401,4.454146516389123,-2.3902199169003193,-0.48590651277508823,3.937323010154937,0.6362742585615735
-1.324365969738736,1.1431948120595317,0.7919875697038126,1.0884878625760472,-0.022437668293747073,0.022357076104165596
-1.6616483372314843,1.4314570696417248,0.5400534744070391,1.055260895985655,-0.022437668293747073,0.0647578854698082
-1.8729864179821751,1.6227975511998978,0.39088671443740786,1.032987373535233,-0.022437668293747073,0.10456409843634587
-1.9862561852284681,1.7256486360892942,0.33393842284494757,1.023617427437605,-0.022437668293747073,0.12813339571948557
-2.032016883829349,1.76757440663492,0.3223385211836,1.0206148853215466,-0.022437668293747073,0.13869590896694628
-2.0507397358141213,1.7831590106624964,0.34490186236315035,1.0218567040359516,-0.022437668293747073,0.14195220879103418
-2.0621272068841034,1.8000926740581258,0.3340617644869102,1.0205663006926624,-0.022437668293747073,0.14586937538063807
-2.0648045138883684,1.8121946979190813,0.3282172277395876,1.0203624473154675,-0.022437668293747073,0.14650838864181534
-2.057206414901583,1.8089890736318124,0.32576890597470193,1.0202549851062095,-0.022437668293747073,0.1458445634581784
-2.034624989989019,1.77839377864785,0.35017991798858783,1.0218632266436494,-0.022437668293747073,0.14166771757897945
-2.0141164300881558,1.754286699778671,0.32522982809488016,1.0184217423123532,-0.022437668293747073,0.1412672815642085
-1.9988757708528555,1.747943995614053,0.30627141701644045,1.0169080305834606,-0.022437668293747073,0.14000454626628717
-2.0126868252339207,1.7725255288029957,0.31427704025430014,1.019104201682424,-0.022437668293747073,0.13984413236261906
-2.0058202254316977,1.7584253639188463,0.3371111344077823,1.0210304088863902,-0.022437668293747073,0.13688325564688938
-1.9943181685995794,1.7375624646233234,0.32442058055891576,1.018892833943701,-0.022437668293747073,0.13627763696872058
-1.9821806029135716,1.7189751470085266,0.3248312403817388,1.0183230723689036,-0.022437668293747073,0.13397806653369618
-1.973449235125768,1.7139368413040756,0.33859036208319226,1.020054325265409,-0.022437668293747073,0.13136240898105175
-1.9531305260126346,1.6949184412539917,0.3381075143838678,1.0197096726409678,-0.022437668293747073,0.12879302337224616
-1.9562772100727994,1.7063615988599357,0.3304140071533476,1.019854621000663,-0.022437668293747073,0.12921140185900837
-1.9627057087060118,1.7138822175715498,0.35178165848496895,1.0225220636580812,-0.022437668293747073,0.12749380195844948
-1.9491842241836252,1.7022291949659887,0.3446812976913354,1.0218481515593343,-0.022437668293747073,0.12613928035049096
-1.9183258569258854,1.6690337501350228,0.32726426757685184,1.0192754488643223,-0.022437668293747073,0.12390839270492324
-1.9169346548810677,1.6792950364028485,0.32126834804751275,1.0200092368338847,-0.022437668293747073,0.12238400147285218
-1.9092882449056525,1.6707789217747235,0.31867668070561816,1.0198774604911902,-0.022437668293747073,0.12020368449256506
-1.9046371870841576,1.6564995440578552,0.28789743514606647,1.0160269226757837,-0.022437668293747073,0.12033548041793247
-1.892724303648689,1.6376917606664751,0.24733842423969513,1.011052327124743,-0.022437668293747073,0.12075937399875904
-1.8998541189219513,1.6519678077201778,0.24225231726381402,1.0116409995303244,-0.022437668293747073,0.12028466018695351
-1.8822141846806166,1.6348596952214214,0.2472427102034672,1.0117817909428448,-0.022437668293747073,0.11835145929526823
-1.8557056732301747,1.6130194185037663,0.2749977821152948,1.01449436379769,-0.022437668293747073,0.11399399803465851
-1.85268289832049,1.6217467996453154,0.30521153950965985,1.0186525915723925,-0.022437668293747073,0.11183907273741679
-1.8576953248300463,1.6255706811293182,0.3383180073092335,1.0221136249210854,-0.022437668293747073,0.10999294167255888
-1.842870159574625,1.5977264885804456,0.3361294711895844,1.0205635743989376,-0.022437668293747073,0.10840987645712873
-1.8198423440273845,1.570942063066015,0.3089427596371033,1.016963867421009,-0.022437668293747073,0.10694113695272509
-1.8211623958057077,1.5854467342949818,0.2885489158258601,1.0162454657427034,-0.022437668293747073,0.10735211154546065
-1.8147953107416879,1.5858502993771435,0.301835180887917,1.0182061771079383,-0.022437668293747073,0.10519516689518607
-1.8060499453383554,1.5791964790816755,0.31981369801672327,1.0202377977587787,-0.022437668293747073,0.10233630865172422
-1.7950146589260771,1.5617002599738277,0.29909339666622076,1.017488503135675,-0.022437668293747073,0.10233432655836072
-1.7940360307967171,1.5581371353120217,0.2682022722091347,1.0143620905704116,-0.022437668293747073,0.1033972303061897
-1.78081993937075,1.532723033415077,0.2699373171588133,1.013565426309402,-0.022437668293747073,0.10039400087356969
-1.7703198755119525,1.5091218710049696,0.3181926341814416,1.0176416454599595,-0.022437668293747073,0.09544109507686552
-1.7674769312877272,1.50256501507996,0.35150571529181807,1.0210065320712993,-0.022437668293747073,0.09273171241458758
-1.7840240296004641,1.5291588414044825,0.3576767202076923,1.0231364015187536,-0.022437668293747073,0.0934926196205566
-1.767688776478238,1.5195289875721694,0.3203183004010026,1.0196038272861916,-0.022437668293747073,0.09343419113377059
-1.747168271813805,1.5045630382106039,0.29468120109506685,1.0170815569735359,-0.022437668293747073,0.09232749492221991
-1.7133450404660477,1.4786412394949464,0.28073415855653394,1.0156029095110495,-0.022437668293747073,0.0895325154024376
-1.6936112292581553,1.463625219800662,0.284322991533191,1.0160072260277635,-0.022437668293747073,0.08718570240160778
-1.6840214090121135,1.4449753539657801,0.29445025176182105,1.0160459008923413,-0.022437668293747073,0.08506685102904671
-1.718454642563069,1.470360833391962,0.33177794038153074,1.0203081122032955,-0.022437668293747073,0.0846292781412815
-1.7256565760202343,1.4729543657302477,0.3239882804264134,1.0194974397948724,-0.022437668293747073,0.08480766153725108
-1.7098538305842435,1.4573665088135195,0.29665720265514134,1.0165881164876245,-0.022437668293747073,0.08423226821897052
-1.685639158906048,1.428747468341283,0.27926725015536136,1.0138415127668872,-0.022437668293747073,0.0822553073305882
-1.6820860824634583,1.4274388262771702,0.3049730097385057,1.0167962483383974,-0.022437668293747073,0.08018877079339255
-1.6753571325139291,1.426979305265111,0.32440974194068917,1.0192984566977625,-0.022437668293747073,0.07842194239695663
-1.668628118395451,1.421239585551351,0.3332694621929089,1.0200677106767821,-0.022437668293747073,0.07759334137744664
-1.6597687841266142,1.4031426010513235,0.32422275860015376,1.0176917323569041,-0.022437668293747073,0.07722932141541981
-1.643709435915407,1.392690748083168,0.3149168573570925,1.016685235948568,-0.022437668293747073,0.07606623875729707
-1.6178650354200148,1.3862897686997715,0.31303084087821914,1.0179272302730626,-0.022437668293747073,0.07304642788549516
-1.6096659384758316,1.3867930683269212,0.2935073305455033,1.016773146848875,-0.022437668293747073,0.07300569698056893
-1.6204180903305667,1.3854595274573442,0.29322086102997413,1.016168246540561,-0.022437668293747073,0.07281359711364843
-1.6250529110821057,1.3801379025546407,0.29904171026508725,1.0163107243775553,-0.022437668293747073,0.07164004562053665
-1.5972086567290222,1.3541089736387475,0.2983120799349738,1.0161522679460373,-0.022437668293747073,0.0685423853875809
-1.5856012823983374,1.3465206075125897,0.2810381104559548,1.014907815577284,-0.022437668293747073,0.06804679591822393
-1.5820676122346053,1.3351927662760366,0.29941753453250036,1.0164208606580023,-0.022437668293747073,0.06620117819173035
-1.602452178979431,1.3565264955689005,0.3394238817969053,1.0217060673763274,-0.022437668293747073,0.06442834442976401
-1.5889013699824712,1.347523502277014,0.3276327756117488,1.0209570375021706,-0.022437668293747073,0.06330191795722782
-1.572456072063288,1.332054076405822,0.2778219869382549,1.0157393942615383,-0.022437668293747073,0.06382821976602661
-1.5443910055345806,1.2930937604971628,0.2399443781265941,1.009650321600323,-0.022437668293747073,0.06333268525814066
-1.5535767483834582,1.3016405408973863,0.2952634677547521,1.0162914677535522,-0.022437668293747073,0.06055358763487738
-1.5556241166035154,1.3066197372138568,0.3217420045601383,1.01975468423908,-0.022437668293747073,0.05882747859510433
-1.5478845852533283,1.300264655177589,0.3150881205671686,1.0192633842366274,-0.022437668293747073,0.0574394259265086
-1.5254992460922703,1.276798071965759,0.2708379203859218,1.0140038298854417,-0.022437668293747073,0.05704351943150573
-1.526084087937445,1.2749345581116414,0.2938712688964614,1.0161766131253631,-0.022437668293747073,0.05553172923016828
-1.5265356903370635,1.2759079521357253,0.3103947284882214,1.0177606013727956,-0.022437668293747073,0.05516289821067467
-1.5116368994843175,1.2672968436925138,0.3220175901543768,1.019073207166117,-0.022437668293747073,0.05351628889561853
-1.489805673837136,1.2492309271113382,0.2974495221937171,1.0159626484910995,-0.022437668293747073,0.05305559895081533
-1.4794683891836031,1.2401864920151846,0.2913658866081277,1.0150843479069176,-0.022437668293747073,0.05167365948113458
-1.4699381594395255,1.2370733252455266,0.28669978770311455,1.015208900778855,-0.022437668293747073,0.05054735670822843
-1.468078999433085,1.2365468849946943,0.2885849513772338,1.0159711897832826,-0.022437668293747073,0.04928389585535481
-1.4610776542002928,1.2261477128234952,0.28155978177073077,1.0151665776247174,-0.022437668293747073,0.04864743155541391
-1.4594045669989788,1.2147827024342204,0.2862127322308059,1.0150229769081989,-0.022437668293747073,0.047460286062468326
-1.4640616547124161,1.2142462860949288,0.2883771929687346,1.0152041175964395,-0.022437668293747073,0.047261953008968766
-1.4633674762539757,1.2079557541202457,0.29115907556124465,1.0150605381350049,-0.022437668293747073,0.046346331464462064
-1.4339363369099416,1.1871696248956578,0.288810636999372,1.0150720805445224,-0.022437668293747073,0.04385592178119845
-1.4202842049271565,1.1747140173196542,0.3275307562832298,1.0189617197798315,-0.022437668293747073,0.041175885080815586
-1.4263615328519244,1.1830811353714457,0.3518533030552958,1.0221540248061547,-0.022437668293747073,0.040096551871006234
-1.4190735590267622,1.1717264553269586,0.34106130555133485,1.0206003986052847,-0.022437668293747073,0.03924661846331116
-1.4042804521064884,1.1604078852081834,0.30035091062727093,1.0166532389054368,-0.022437668293747073,0.03916558432853037
-1.3912118099452406,1.1452939898315204,0.26063814465703355,1.0119252443940443,-0.022437668293747073,0.039625665622709805
-1.3839513091184033,1.139840866822586,0.2728520229191969,1.0137026290507691,-0.022437668293747073,0.037924249511155535
-1.3885385027289452,1.1440242757603016,0.30909163106052817,1.0181747157405279,-0.022437668293747073,0.03614256364625965
-1.3978567669027115,1.1498620269889068,0.3557029757624194,1.0233347682025817,-0.022437668293747073,0.034227626885907025
-1.3875330469223082,1.1308074552557723,0.36149872518138393,1.023093850809919,-0.022437668293747073,0.03329725481547965
-1.3658165781407585,1.0997133955359593,0.3614440823064706,1.0215020827353214,-0.022437668293747073,0.03179780050779101
-1.347076913933438,1.0831380683402327,0.3432842554655385,1.0194187241052781,-0.022437668293747073,0.030743211909621964
-1.3512464901756134,1.0937684157074055,0.36289818082164355,1.0228277376627046,-0.022437668293747073,0.029239070831499587
-1.350042109060596,1.0934471570433841,0.36219476526247557,1.0229678619933973,-0.022437668293747073,0.02889130531430422
-1.3618134012868837,1.103080496343367,0.3655179030383314,1.0233290178248071,-0.022437668293747073,0.02914503321082504
-1.327802212525385,1.0794850640341471,0.3330891392003629,1.020234075106051,-0.022437668293747073,0.027796116598502774
-1.3067369348047253,1.0719347087662152,0.3105147424190277,1.0190124071112663,-0.022437668293747073,0.026596294702761734
-1.2931894424798829,1.0553585916913206,0.2724463422658599,1.0142634311418113,-0.022437668293747073,0.026722599980708632
-1.3086302557019798,1.0518506043087092,0.30487490074244994,1.016130458331024,-0.022437668293747073,0.025733252806965444
-1.2965482594659026,1.0346934885999965,0.3267444426274285,1.0177268570863036,-0.022437668293747073,0.0234238581238435
-1.2890880220772762,1.036799352244225,0.31238267546262133,1.0174098521686297,-0.022437668293747073,0.02309931263921367
-1.3011415539593487,1.061636481174519,0.3073665058843834,1.0190457556466326,-0.022437668293747073,0.02357336698891897
-1.2917474679211074,1.0485570567759013,0.3002121526455804,1.0176476724920878,-0.022437668293747073,0.02306591724910346
-1.2585678683156543,1.0102739763487834,0.29369518145883683,1.0153341068671493,-0.022437668293747073,0.02090331717760461
-1.253802292803097,1.0083378311709934,0.29698891509179065,1.0162503380121715,-0.022437668293747073,0.020158100508874642
-1.275061569806194,1.0290722678577493,0.3552942015099034,1.0233770487119143,-0.022437668293747073,0.01892486653080451
-1.2775568706789318,1.022322904749424,0.3683067112539561,1.0239139795195327,-0.022437668293747073,0.018192096510310757
-1.2440887341135096,0.9867267658542845,0.3286010872758767,1.0186338500328505,-0.022437668293747073,0.0170410229098622
-1.2189650789674171,0.9727657488412925,0.27685995433085187,1.0138833321902887,-0.022437668293747073,0.016486522413070356
-1.216133553008789,0.9717496044318403,0.2769287696217652,1.0139790332571628,-0.022437668293747073,0.016255893359035344
-1.23019999248906,0.980582028152396,0.3270895799905694,1.0190186589719437,-0.022437668293747073,0.01567482488640767
-1.225106187414075,0.9762391852033584,0.3408680808590141,1.0203610952331226,-0.022437668293747073,0.014413052605579143
-1.2086637560885973,0.9663996997855465,0.3361735746842585,1.0201726435312848,-0.022437668293747073,0.013056312444574709
-1.2016007696899083,0.961283255781989,0.34429916826138984,1.021129570538679,-0.022437668293747073,0.012262431767089669
-1.2046125050606438,0.9633672135204064,0.3493339833877443,1.0218716474044167,-0.022437668293747073,0.012397560722967702
-1.1892239430917195,0.9484270750457227,0.3210599005516354,1.0189910305928767,-0.022437668293747073,0.011633480626059711
-1.1671499716776828,0.9261724051238719,0.27180183676249536,1.0135305897894837,-0.022437668293747073,0.010596480442627206
-1.1644370517586708,0.9209332409196552,0.2809954465200139,1.014934322710304,-0.022437668293747073,0.009097913467905587
-1.1905488872757812,0.9454308767178146,0.31196798395230907,1.0192566327979886,-0.022437668293747073,0.009445729335682145
-1.1958589756829088,0.9480777108462364,0.3152616942706054,1.0195607685208938,-0.022437668293747073,0.009688020130680626
-1.155476969764976,0.9139396259575708,0.28502066299821527,1.0158690673928301,-0.022437668293747073,0.007922018778197988
-1.1210100814255524,0.8810889529937136,0.2796703386157535,1.0141715180455961,-0.022437668293747073,0.005639007386936033
-1.1256752363593714,0.880368941192115,0.3423342326550924,1.0203750202041026,-0.022437668293747073,0.0039144287095171084
-1.1470430497475204,0.8917809506605638,0.3448113208771411,1.0200388132156315,-0.022437668293747073,0.004778136619512354
-1.1267971788437237,0.8782444573993445,0.3147148187499271,1.0173955643523382,-0.022437668293747073,0.003855355677980277
-1.136857976607138,0.8969452059340663,0.29918113774544597,1.017773816376552,-0.022437668293747073,0.004533864880860781
-1.1337565614598484,0.8924272319400804,0.2982820607522518,1.0178879427482161,-0.022437668293747073,0.003976193407777334
-1.115066650569373,0.866272960507654,0.262022819712377,1.0125017770068634,-0.022437668293747073,0.0034107253228206342
-1.0765767145188654,0.8294678245659943,0.23661357093607346,1.00868071456661,-0.022437668293747073,0.0010130938041775814
-1.0959791975380464,0.8616620674685421,0.2851456445566574,1.0170233961994848,-0.022437668293747073,0.000400778634103728
-1.105002381591592,0.8799779114610244,0.29820636278657336,1.019979099080706,-0.022437668293747073,0.0005226538024096925
-1.0833361057868842,0.8549996091430474,0.27056564613417317,1.0162921965351237,-0.022437668293747073,-7.510849763009836e-05
-1.0684484512184083,0.8306564299105981,0.23967445080131053,1.0113751412091725,-0.022437668293747073,-0.0005970203966124684
-1.0609770409661297,0.8186009566227432,0.2055151483010402,1.0069277433551123,-0.022437668293747073,-0.0007444265704823937
-1.0748493339014034,0.8407864454004682,0.25365770905083795,1.0143389582170386,-0.022437668293747073,-0.0016810359265631801
-1.0508776848563333,0.8256732945415763,0.30050541378305795,1.0199127650271573,-0.022437668293747073,-0.0040998373667739075
-1.032715912872882,0.7964396589984656,0.34935420476447854,1.0227596972948048,-0.022437668293747073,-0.005859166659378687
-1.0227981723431503,0.76514582138578,0.3399282380112269,1.0174244273318254,-0.022437668293747073,-0.006057386994237985
-1.04119323037945,0.7813508885397618,0.359947782915295,1.0206487195809444,-0.022437668293747073,-0.006461662802239767
-1.0473925575891254,0.8023874379137105,0.3254678123950843,1.0200911318846202,-0.022437668293747073,-0.006047267646627877
-1.0365839101740104,0.7963898040097178,0.292364435172689,1.0174443055981333,-0.022437668293747073,-0.006068523510244146
-1.0267645789243727,0.7775826787817027,0.29791505605279694,1.0166334093379097,-0.022437668293747073,-0.006959756447609521
-1.0217414849108577,0.7624920524001402,0.34458407360764665,1.0203054464384849,-0.022437668293747073,-0.00875164027366518
-1.019084672437713,0.7559434657352964,0.335144397758334,1.0190149540052327,-0.022437668293747073,-0.00900564863522035
-1.008126598370379,0.7456639464081556,0.31712305930660667,1.017000128641212,-0.022437668293747073,-0.00934115290643489
-0.9973311644141805,0.7339854730932045,0.3208745545279234,1.0168111676453797,-0.022437668293747073,-0.010234952174671184
-0.9956668742045508,0.7310895087953672,0.3519524525965784,1.0199275052505574,-0.022437668293747073,-0.011070320274438614
-0.9848060277022652,0.725173439737955,0.35997763385796033,1.0210207775803772,-0.022437668293747073,-0.011690769087648926
-0.9887063616921101,0.7449741453145269,0.36326530248505173,1.0241580585319427,-0.022437668293747073,-0.011949933262225773
-0.9876638009446614,0.7546622663824575,0.3429646135265167,1.0235764826968692,-0.022437668293747073,-0.012006604416131087
-0.9791731106093442,0.7393579974016025,0.30410017758654767,1.0183702149233618,-0.022437668293747073,-0.01203048076378009
-0.9522217694691147,0.7060092734338856,0.2604557757204559,1.011779648758169,-0.022437668293747073,-0.012960972358218326
-0.9453328345245852,0.7029576200813662,0.23628339420996616,1.0099061570681118,-0.022437668293747073,-0.013241558777922938
-0.9422874970461029,0.7098554108278678,0.21256600601176026,1.009144778288235,-0.022437668293747073,-0.01286157819532956
-0.9459290005844386,0.7162553868146682,0.23475121165602797,1.0122285592755824,-0.022437668293747073,-0.013167920877036887
-0.9355909087171104,0.7102137490289194,0.27185502519406035,1.0165518052459739,-0.022437668293747073,-0.014615813926283104
-0.924117334705084,0.6886841274683653,0.3368016165651739,1.0212734269195038,-0.022437668293747073,-0.016311200043789394
-0.9167117391135688,0.6725531343029912,0.33656856177535205,1.0190798361391944,-0.022437668293747073,-0.01640943460729162
-0.9044918377113327,0.666617208871906,0.3155334010376823,1.0170885984434905,-0.022437668293747073,-0.01701254448167728
-0.9037155547058295,0.6805988815567375,0.25582471511203647,1.0135124155909483,-0.022437668293747073,-0.016577888802474475
-0.9127648206575715,0.6922545307779954,0.2361227239191835,1.0126687501723486,-0.022437668293747073,-0.016773387880542855
-0.8975250285199886,0.6744222410716225,0.2254970223343068,1.0113230141871525,-0.022437668293747073,-0.01768753586512297
-0.8859632612509136,0.654261613357248,0.29227208420948664,1.0173134646575446,-0.022437668293747073,-0.019537860467359842
-0.8885832071882352,0.6394930197243023,0.33166617539417703,1.0193195990212762,-0.022437668293747073,-0.02006993287625369
-0.9000117079911432,0.6406607840511758,0.31443185382250305,1.0169454275343746,-0.022437668293747073,-0.019960640532223316
-0.8817269050541788,0.6250487062652895,0.2745938021943004,1.0130805457850158,-0.022437668293747073,-0.02070822917413873
-0.8783643071187123,0.6227792621002733,0.26508396223896447,1.0126282349419344,-0.022437668293747073,-0.021056691197259916
-0.8764318178984666,0.6205356491939967,0.28696361482637445,1.0153705932504207,-0.022437668293747073,-0.021796768036421436
-0.8767337781188218,0.6196928653688326,0.3019660967236939,1.0171210673473143,-0.022437668293747073,-0.022104371930042287
-0.8564913851120715,0.6045070687403648,0.29849288161753834,1.0168134929397072,-0.022437668293747073,-0.022890785238184736
-0.8477220572348211,0.5981706458071175,0.3240643409107312,1.0194583397888788,-0.022437668293747073,-0.023638028947638046
-0.8427389205262452,0.5878577064764673,0.39039450245803825,1.0253605546430922,-0.022437668293747073,-0.02517209481839034
-0.8411023900723226,0.570468376318295,0.4597458898761211,1.02984043566357,-0.022437668293747073,-0.026418323060108502
-0.8418494549992539,0.5669520490000031,0.4363033190536692,1.0270093265460927,-0.022437668293747073,-0.026184077854335464
-0.8432553111934882,0.5705746286075379,0.4180916456962261,1.0261186739902348,-0.022437668293747073,-0.026050993419061412
-0.8381991116433217,0.5778157404238138,0.37799270588679945,1.0244012122922763,-0.022437668293747073,-0.026031819350325395
-0.8133634238431342,0.5622819035007826,0.36425757838799877,1.0240419583634466,-0.022437668293747073,-0.02721322962862906
-0.818023949327381,0.5706277706195041,0.34579420796876115,1.0232527757182361,-0.022437668293747073,-0.02697607591671921
-0.8191430029215326,0.563253085921263,0.3456350002531687,1.0218237418106793,-0.022437668293747073,-0.027077243344726627
-0.8135487289434782,0.5526245795054598,0.319660030714809,1.0179241531071073,-0.022437668293747073,-0.027197148004995148
-0.7971508969241903,0.5419238205558654,0.30778935395106727,1.0173993213433594,-0.022437668293747073,-0.02820634747366981
-0.7876698462988189,0.5349087879348969,0.30559629211831135,1.0173096412575455,-0.022437668293747073,-0.02884157577911922
-0.7885796904052305,0.5353301703278974,0.29194768053747955,1.0156207240346922,-0.022437668293747073,-0.028577115542376172
-0.7865084283361368,0.5313252204499106,0.2592284206820603,1.0113211646493956,-0.022437668293747073,-0.028057872198009426
-0.7862602315373137,0.5278619632289044,0.32462379119535095,1.0178862622084828,-0.022437668293747073,-0.029291771566006947
-0.7798810273448614,0.5225952493053063,0.38665317908630964,1.0246469586012632,-0.022437668293747073,-0.030662482200163453
-0.7773845429778852,0.5190731333779034,0.3959533351743807,1.0255315922732722,-0.022437668293747073,-0.030869121308109607
-0.7700700432819884,0.5116686815798364,0.37955128411158495,1.023705563656179,-0.022437668293747073,-0.030867176879385897
-0.7577073370168288,0.4978394724549775,0.35561308965162886,1.020652904955047,-0.022437668293747073,-0.031366766479003105
-0.7517466723178238,0.5020319480770185,0.2773710140404012,1.0152215244583056,-0.022437668293747073,-0.03141101451719665
-0.7556242852689558,0.5046927845355115,0.2519727102150899,1.0131772902832377,-0.022437668293747073,-0.03125679513999054
-0.7585989206380198,0.49534863946168645,0.3234647611899298,1.0184848655207772,-0.022437668293747073,-0.03211884611242342
-0.7404758188452875,0.46639883839943524,0.38761776677215365,1.021746124816288,-0.022437668293747073,-0.033404899651789215
-0.7178353154405442,0.4439612486097082,0.3598269802442304,1.017127484455147,-0.022437668293747073,-0.034188693803633166
-0.7331453077356237,0.4695856730642389,0.35983143471033435,1.0209959472622567,-0.022437668293747073,-0.033870510884734
-0.7365209059874045,0.48974700657667203,0.29495203579889506,1.018037581237859,-0.022437668293747073,-0.03345445249754543
-0.7126492633612759,0.47703299643174346,0.23475272001240416,1.0129402851491045,-0.022437668293747073,-0.03387295115426409
-0.6777623528710405,0.4337730531751124,0.23296912772824396,1.0081033529530574,-0.022437668293747073,-0.03501198829236803
-0.6880995831305631,0.44025254413660203,0.4175250138617911,1.0274993176919138,-0.022437668293747073,-0.03635905081109808
-0.6740248403870676,0.42205084890532696,0.44539675431547726,1.0290362689171242,-0.022437668293747073,-0.03717655391714002
-0.6722482855297485,0.42501800124413475,0.37298924685807106,1.0235140480537683,-0.022437668293747073,-0.03708350884803233
-0.6844433793763545,0.44026057427547083,0.29321332930820415,1.017362541673803,-0.022437668293747073,-0.03625065597676284
-0.6957895307212414,0.45637696459367894,0.2659669920152312,1.0169564862171145,-0.022437668293747073,-0.036007312689709844
-0.6732748784547206,0.42828575180806305,0.1906925825947941,1.007627435666409,-0.022437668293747073,-0.03609728256042207
-0.6595801956110247,0.40498989291939375,0.2491812963171829,1.0110104250029488,-0.022437668293747073,-0.03728881698701484
-0.6666667643857193,0.4125895341537344,0.3731069443887706,1.0247886040756915,-0.022437668293747073,-0.0382957092635781
-0.6584974313993517,0.4074966431619992,0.4337506716129697,1.031293291450359,-0.022437668293747073,-0.039200984117552067
-0.6541938237972377,0.40257305535425336,0.42820415628505637,1.0305912290145764,-0.022437668293747073,-0.03922644924606008
-0.6564735479625875,0.39689425425135977,0.3922579592841282,1.0253415147914076,-0.022437668293747073,-0.03895790178228639
-0.6538794913521057,0.3871599620422011,0.3412525453002208,1.0183027076270523,-0.022437668293747073,-0.03915425588172514
-0.637876025010076,0.37244311646428196,0.27378878854503763,1.0105254239886985,-0.022437668293747073,-0.03930591715005836
-0.6309038655330962,0.36761272561606184,0.27571103180859285,1.0106071895612718,-0.022437668293747073,-0.039380186409165734
-0.6450248877752993,0.3875032855572507,0.349909409755524,1.0213384243961297,-0.022437668293747073,-0.03913370414023273
-0.6437941759099474,0.39090537502337525,0.42926548395642034,1.0306950823446988,-0.022437668293747073,-0.03980329244129761
-0.6304582386941986,0.3804324984993285,0.4394484480130763,1.0317972234013846,-0.022437668293747073,-0.040661325620923304
-0.6134473103968515,0.3617924363222086,0.4120158322365406,1.0282924678653838,-0.022437668293747073,-0.041430573184515304
-0.6141578286561079,0.3586132144121328,0.38493410527797406,1.02496276720239,-0.022437668293747073,-0.041314866024138065
-0.6182562448630271,0.3584517292223437,0.3615860917729143,1.0217293628874464,-0.022437668293747073,-0.04093546260980075
-0.6127739510456613,0.3438242777355548,0.39004547646087356,1.0217624149275988,-0.022437668293747073,-0.04148213237335952
-0.586999045591158,0.32520802839915974,0.38600839171670587,1.0218198903467322,-0.022437668293747073,-0.042459250084312776
-0.5664106555127248,0.3136925460550588,0.29303028395513236,1.0123224826577406,-0.022437668293747073,-0.04247196086218886
-0.5842417375043887,0.3412488887892461,0.3113789636441345,1.0191901106101202,-0.022437668293747073,-0.042280482806723314
-0.6003373735121195,0.3543505603377398,0.34077580339053787,1.0226351495027795,-0.022437668293747073,-0.042263834903078216
-0.5949785189206378,0.3469809573301435,0.36100411006732763,1.0247243811060363,-0.022437668293747073,-0.042771441497801314
-0.5816117320437646,0.328579055418613,0.27784286780607886,1.0146579340815023,-0.022437668293747073,-0.042693053569154274
-0.5733185471771157,0.3237078704370063,0.2176091205908941,1.0089963849323986,-0.022437668293747073,-0.04279076762075537
-0.5633530563626522,0.3156147437780484,0.24779213786029203,1.0122787869646406,-0.022437668293747073,-0.043434833893773575
-0.5517943486654393,0.2958415269890778,0.3807215084860343,1.022736478299309,-0.022437668293747073,-0.04448246529971574
-0.5512885047643998,0.283283710665767,0.502900631797879,1.0321196790582285,-0.022437668293747073,-0.04537491494482796
-0.5502078903040994,0.27683388364568395,0.4964016656988456,1.0303109736059166,-0.022437668293747073,-0.045529930272682956
-0.5528253348442973,0.28641062598828754,0.4711493136503026,1.0309277485571624,-0.022437668293747073,-0.045509222127459066
-0.5533889074453597,0.29936324020646476,0.3514725476507554,1.0221745862607887,-0.022437668293747073,-0.044826163407584864
-0.5498530010468148,0.30020963079035107,0.2693976233245178,1.0143649876500065,-0.022437668293747073,-0.044681805347814844
-0.5366228511171818,0.28770576991909896,0.2074561356413906,1.0072246432898384,-0.022437668293747073,-0.04495303416095779
-0.5215683662888155,0.2764223371403855,0.2004999890156213,1.0065388121131722,-0.022437668293747073,-0.04544826197468729
-0.5164141605013095,0.27193345195406216,0.2155615021647294,1.0080004480891664,-0.022437668293747073,-0.0458873030937841
-0.5208493581925521,0.2667303946875031,0.2842967288070359,1.0126132499597889,-0.022437668293747073,-0.04616080376296158
-0.5191920506908779,0.26302835775334027,0.3001279344157354,1.0139362956336835,-0.022437668293747073,-0.046183398325616264
-0.5204646614528852,0.27098056142832916,0.3466310872627078,1.021646254129936,-0.022437668293747073,-0.046252337870534926
-0.5034268475174658,0.2616777927122998,0.34061048847432546,1.0227137915600117,-0.022437668293747073,-0.04686399920332611
-0.4946266009691862,0.24943468006833222,0.2858814348080898,1.0159824217362443,-0.022437668293747073,-0.04709743327652379
-0.48331681594971776,0.23213426519346786,0.18735015456693066,1.0029246086544363,-0.022437668293747073,-0.047070432157832055
-0.4952711416913794,0.23926837985622332,0.2302815000692436,1.0077683238146697,-0.022437668293747073,-0.04704843934460883
-0.5003279534763619,0.24187403773990482,0.3472473761178233,1.0199677447311688,-0.022437668293747073,-0.04749365360392142
-0.49903245455382533,0.24142244885860195,0.4402356095283896,1.0292669639994922,-0.022437668293747073,-0.04793373966958995
-0.47529701790728757,0.22323311143760335,0.479550568100598,1.0330201155092735,-0.022437668293747073,-0.04855652744672434
-0.46654921810812855,0.22645703483084337,0.4202198391034788,1.0300877568111395,-0.022437668293747073,-0.04857028542654271
-0.46935885631513075,0.23044667651095355,0.41355438785601795,1.0304018435188396,-0.022437668293747073,-0.048622059129248545
-0.4726491773166003,0.2234726432189191,0.4090681558478241,1.0276818777840324,-0.022437668293747073,-0.04865129446809289
-0.46227303668358616,0.20622824197679124,0.39119186792071947,1.0235554182653896,-0.022437668293747073,-0.049040465930462115
-0.44931586719832756,0.19008571061761156,0.3115879793499611,1.0133457533660821,-0.022437668293747073,-0.049211863973367194
-0.44615499047715734,0.18699860341540123,0.3663260873846921,1.0202395708238436,-0.022437668293747073,-0.04968167325225757
-0.4521025672810472,0.18865160025002192,0.4148499290755184,1.0247876692154916,-0.022437668293747073,-0.04979114065062713
-0.45514282132600653,0.19680650804451894,0.37329389678751684,1.023752644845162,-0.022437668293747073,-0.04976410569380213
-0.4533487982747522,0.20115404488313648,0.2590901897224666,1.0145750550560528,-0.022437668293747073,-0.04953301715148446
-0.44845832543340847,0.19585539901311094,0.2761673298567964,1.016107311560543,-0.022437668293747073,-0.049861750005728324
-0.4244448730733421,0.17195275370439134,0.29800376929238426,1.0161359187529304,-0.022437668293747073,-0.050456006344219255
-0.41579474360185387,0.1625831593423787,0.38095020543636593,1.0230128173058397,-0.022437668293747073,-0.05087491562861899
-0.402203302906431,0.15767617874404555,0.3781468121166008,1.0242163738279773,-0.022437668293747073,-0.05117671975805486
-0.39569770604700366,0.1517469164810039,0.3193753947978288,1.0177873252191498,-0.022437668293747073,-0.051311728424857844
-0.41123136062660753,0.16868192408958302,0.23441144874149442,1.012384144180646,-0.022437668293747073,-0.05085483247692857
-0.43224410430091803,0.18346712381916233,0.24678287765474916,1.0137662517710766,-0.022437668293747073,-0.05058492657862461
-0.4176318034237992,0.16877778378594488,0.26837898621625805,1.015972931156093,-0.022437668293747073,-0.05097638080591774
-0.39243048644385564,0.14908494718710874,0.3172037220593213,1.020849541200518,-0.022437668293747073,-0.05151838274058636
-0.39530985526897156,0.15080513808787166,0.46974432970083113,1.0363242538375774,-0.022437668293747073,-0.05177622091834698
-0.4011495612050202,0.14807404648862776,0.5732822932540281,1.044082971731924,-0.022437668293747073,-0.05205851559779032
-0.38467603967481684,0.13188780348404158,0.49251333887715854,1.035828894306122,-0.022437668293747073,-0.0523570050392089
-0.3757310861720879,0.12762784046513176,0.3347288806245433,1.0208241432345688,-0.022437668293747073,-0.05221094264643811
-0.36071382239266403,0.11597564293582023,0.2200982820969148,1.0096567787901176,-0.022437668293747073,-0.05237141937046752
-0.37740897574406523,0.12668638333604545,0.30436641880548243,1.0195490497279014,-0.022437668293747073,-0.05247923601763413
-0.3801662934608292,0.13052339085717812,0.23388609599620216,1.0140077173919952,-0.022437668293747073,-0.05242619767094247
-0.3814126135820442,0.1304272199806652,0.18244171207403143,1.0090270750555246,-0.022437668293747073,-0.05243800884330787
-0.36948628304359005,0.114863691754828,0.1353846998393327,1.002260367380811,-0.022437668293747073,-0.05263636321339181
-0.36967785175079254,0.10605515687987292,0.20911120810620423,1.0063235757765692,-0.022437668293747073,-0.05287971714592961
-0.3733673402670112,0.10203302741234385,0.2667299657033373,1.0091370042918635,-0.022437668293747073,-0.052991780768263344
-0.3743672043309369,0.10525039610496868,0.4173623132953769,1.0264453510450657,-0.022437668293747073,-0.05331422228800095
-0.35593319139221097,0.09706740911626503,0.45594565677054694,1.0327983529762792,-0.022437668293747073,-0.05370591356472327
-0.3295327556560245,0.07824668839654413,0.3158317099959627,1.0183591444838853,-0.022437668293747073,-0.05393526644419563
-0.3382973736973095,0.0932261535241118,0.25278994437006586,1.016034990136921,-0.022437668293747073,-0.05384887006412807
-0.3552052511877881,0.1113852253839706,0.19116166200454565,1.011968142208065,-0.022437668293747073,-0.05346318518775259
-0.35603133247839897,0.11075390269107102,0.10717304158411112,1.0040675244477864,-0.022437668293747073,-0.053265351688209193
-0.34087826520611797,0.0876132215614975,0.025330371701370088,0.9907676356781682,-0.022437668293747073,-0.05344319620849342
-0.3360307944529373,0.07879033805009664,0.0785105321599295,0.9936625620685829,-0.022437668293747073,-0.05374637264022029
-0.3306370467670732,0.07088599983662135,0.22975669824557415,1.007701968025293,-0.022437668293747073,-0.05413788587391461
-0.3307748230687283,0.07342517312344238,0.3345217338771632,1.0196089089662836,-0.022437668293747073,-0.05437188780048288
-0.31445390659043815,0.06724358460546678,0.28508749627829394,1.0173016428083197,-0.022437668293747073,-0.05454288512576521
-0.3086940994427124,0.06959967113610847,0.2583473375188617,1.0178509940586078,-0.022437668293747073,-0.05458215824549144
-0.3086579611016955,0.05928911416722688,0.42539623304617974,1.0307965022497358,-0.022437668293747073,-0.05495258078314919
-0.3081217667619933,0.04608329987914067,0.4855566409998254,1.0314025028443161,-0.022437668293747073,-0.05518932182550752
-0.30459363107464876,0.038534718675562074,0.26851219369051393,1.0060601164982286,-0.022437668293747073,-0.05501062462303234
-0.3092056203604578,0.052249211720506984,0.03596926797866726,0.9884571327481045,-0.022437668293747073,-0.05457003561698659
-0.2996630225084093,0.04743467636012925,0.04956353268577007,0.9924552233648842,-0.022437668293747073,-0.0549361644602425
-0.2879154827379916,0.03778486762976357,0.24532243432184173,1.01269960798197,-0.022437668293747073,-0.05547421030464624
-0.29095878666073727,0.037624218922186696,0.33805453540918323,1.0206803442170358,-0.022437668293747073,-0.055555210385817934
-0.28949283427209654,0.039217347815370604,0.17937863857389533,1.0065459442151916,-0.022437668293747073,-0.05528603871818648
-0.28029338165186707,0.03569179503664602,-0.013789392387204244,0.9898972623940611,-0.022437668293747073,-0.055288796355316014
-0.2837695749069681,0.03584627235517594,0.1311475709360508,1.004515573403514,-0.022437668293747073,-0.05552883032904866
-0.2923274671728192,0.030005803627096168,0.48283487858388396,1.0336203533364208,-0.022437668293747073,-0.0558287477758576
-0.2835201967431932,0.013582559835369223,0.6405976045213096,1.0449763963571346,-0.022437668293747073,-0.05608577100974334
-0.27624387325562855,0.010928026851679293,0.511220629110388,1.0338405532315176,-0.022437668293747073,-0.05611528717428416
-0.26429200287991167,-0.0021195323241526426,0.37475281484522893,1.0165390654948336,-0.022437668293747073,-0.05618555040677169
-0.2644243473028636,-0.003999413083891269,0.5745438868491318,1.0380014509331623,-0.022437668293747073,-0.05644699101813281
-0.25642164735191025,-0.013833398176018015,0.6036434346780285,1.0392169668317044,-0.022437668293747073,-0.05663033021006017
-0.26554307113722464,0.00014239547299823056,0.36682032873885834,1.020802726485364,-0.022437668293747073,-0.056409188061241476
-0.26318457939310685,-0.0001707453904805084,0.14308176881430393,0.9997510538858463,-0.022437668293747073,-0.056259729207341534
-0.25333014803639825,-0.007451143664959636,0.2937711337217964,1.0163105770376568,-0.022437668293747073,-0.056570973129674934
-0.23612831577212123,-0.02134397859911943,0.5808476119235496,1.0447180181394966,-0.022437668293747073,-0.057002913396239356
-0.23047684239603394,-0.023265761167863778,0.47780931573955854,1.034504646393523,-0.022437668293747073,-0.05695513848756111
-0.24045388543449012,-0.006944073115650936,0.3336557176476879,1.024641064101499,-0.022437668293747073,-0.056783414194072825
-0.23762994206888718,-0.014592423685761878,0.257859287133583,1.0142093644829033,-0.022437668293747073,-0.056835164653013914
-0.23492029779957446,-0.019982607784392932,0.16202148209586648,1.003408772338423,-0.022437668293747073,-0.056833147958759093
-0.23024491445696235,-0.024403038898959218,0.13178370971193024,1.0005712400225533,-0.022437668293747073,-0.05688155675586191
-0.216634050212814,-0.02952796273674792,0.13839012428602224,1.0058132226884218,-0.022437668293747073,-0.05707851937652901
-0.21414559411942816,-0.03046690426952665,0.05016198410289463,0.9979077770982276,-0.022437668293747073,-0.05704223250638636
-0.21726951885185078,-0.031025488379512054,-0.061572548969858455,0.9832883609237905,-0.022437668293747073,-0.056917183177282
-0.20764960554146744,-0.03780544645742471,0.015211530147887679,0.9911621232657667,-0.022437668293747073,-0.05705931523012809
-0.19008903850837444,-0.045487096189487014,0.19132258426781898,1.0119101850145382,-0.022437668293747073,-0.057373572506737226
-0.1829811118062644,-0.046009609198668505,0.29304179983297957,1.0236098399362727,-0.022437668293747073,-0.057499480723491925
-0.17539018550222912,-0.057571375434633455,0.3197074736943303,1.0208359293303941,-0.022437668293747073,-0.05760822782766706
-0.200111121784244,-0.03910214412738578,0.3154790251579787,1.0203388823843174,-0.022437668293747073,-0.057435074617491685
-0.21265415479164818,-0.035561785787032466,0.3001019223490451,1.0154908363033948,-0.022437668293747073,-0.057364031497215466
-0.20100171489873572,-0.04685676335878609,0.29149883592971265,1.0159689964875862,-0.022437668293747073,-0.05753613136166272
-0.1694803695566935,-0.075435316869311,0.28442371427723295,1.0140007941375488,-0.022437668293747073,-0.0578657715907865
-0.18632059364580386,-0.05942910401506853,0.29750363118526096,1.021344375523832,-0.022437668293747073,-0.05775570299582989
-0.18207062993134876,-0.06892031426148884,0.20153906009638128,1.0074660765513517,-0.022437668293747073,-0.057777508946537826
-0.18035273176035593,-0.07088426065192109,0.32954656934572024,1.021684759568389,-0.022437668293747073,-0.05793120036055323
-0.1727174449364868,-0.08292100663430463,0.4247200309785653,1.0267384077294632,-0.022437668293747073,-0.0581081515535583
-0.17455461604603448,-0.08205064210991474,0.09622408121494813,0.9903246366035627,-0.022437668293747073,-0.057890960589057225
-0.17501572980054309,-0.07174206652989867,-0.1620307316206231,0.972792491925828,-0.022437668293747073,-0.05773382939009296
-0.17548546031481135,-0.05834491919570089,-0.06897541407916595,0.9923903178988732,-0.022437668293747073,-0.05774419999287959
-0.1595802646052973,-0.0721944035728791,0.15382362704097924,1.012340340461215,-0.022437668293747073,-0.05807870241233408
-0.1303321050790895,-0.10078273347624495,0.14828803413938382,1.0011270642639887,-0.022437668293747073,-0.0583627407242884
-0.1330469723047385,-0.10423570792569811,0.3388625569513468,1.0159775530497357,-0.022437668293747073,-0.05841226597563301
-0.15269758614653023,-0.09059497988697687,0.544247124427401,1.0428349178880076,-0.022437668293747073,-0.05834477360474813
-0.16258376663222818,-0.09173417730889613,0.4741812376986284,1.0289124459325416,-0.022437668293747073,-0.05831482434051684
-0.15421088453342224,-0.10546231043912994,0.5222589674721619,1.0313213779678239,-0.022437668293747073,-0.05843858395880449
-0.14935652485897577,-0.1157977550647216,0.7731316335497311,1.0511090133547232,-0.022437668293747073,-0.05856226551300091
-0.1314679073337314,-0.12786962930257187,0.8004730580742144,1.0548439338760762,-0.022437668293747073,-0.05869120357872725
-0.13285645848561153,-0.12471897115902171,0.5628894682486564,1.0357000229860776,-0.022437668293747073,-0.05866057073139469
-0.1339248232489949,-0.13245730417380014,0.8383402011047225,1.0565919745324415,-0.022437668293747073,-0.0588048648362378
-0.14107173745173363,-0.133794510739627,1.2728720373297542,1.0923850119082994,-0.022437668293747073,-0.05891439870355762
-0.12241578331818465,-0.14378325284475435,0.8667374267353599,1.0580485139172424,-0.022437668293747073,-0.05893732049362079
-0.1400908298164431,-0.10943374998752568,0.22719925979156788,1.0122637697579107,-0.022437668293747073,-0.05866159332114299
-0.13857705135821285,-0.11078835446459316,0.20255642770940044,1.010883692881136,-0.022437668293747073,-0.05866525064131658
-0.12633327900845442,-0.1253281642561831,0.3322126827948853,1.0221172511644,-0.022437668293747073,-0.05876550483527725
-0.09733044942046665,-0.14930225054316745,-0.11747216594686195,0.964325804433415,-0.022437668293747073,-0.05887528088486148
-0.09360618664497018,-0.15262605642993446,-0.384807359290748,0.9287238942623988,-0.022437668293747073,-0.058884169213738645
-0.10982723202311348,-0.14783354375842536,-0.1940556412756296,0.9471718965519199,-0.022437668293747073,-0.058853817783799986
-0.11515397131742514,-0.1455650568911836,-0.2609363653611876,0.9446095566563528,-0.022437668293747073,-0.05882481680766391
-0.11689131713380536,-0.1297041361138351,-0.13305628822536364,0.980948082043399,-0.022437668293747073,-0.05887415860797131
-0.10635730630387692,-0.13346763544497192,-0.22883408673349573,0.9753291840284163,-0.022437668293747073,-0.05892833621164359
-0.10861180105156187,-0.1379718024288562,-0.06466362199028254,0.9874655976003524,-0.022437668293747073,-0.05894215567567783
-0.09959060923344541,-0.15512124189471213,-0.20570085336976499,0.9558112075216642,-0.022437668293747073,-0.05894708988358364
-0.0871424555230456,-0.1619771841660593,-0.1837010436004289,0.9565526215166613,-0.022437668293747073,-0.05905549770965878
-0.0884994247426095,-0.16004848533379035,0.06754481334552724,0.9868045808869362,-0.022437668293747073,-0.05911236659148428
-0.09396374732882823,-0.16110234050835712,0.49664813801871605,1.023587092395158,-0.022437668293747073,-0.05916267693469898
-0.08806408067912677,-0.17612458212341559,0.413130386627533,0.997245907934648,-0.022437668293747073,-0.05917649797227762
-0.07989072828360047,-0.184069226697735,0.4205443370684958,0.993163436951229,-0.022437668293747073,-0.0592408828261485
-0.08727396476707872,-0.17603513387990039,0.4699507759575469,1.020337922122793,-0.022437668293747073,-0.05924553532459245
-0.08654244988068895,-0.1719833131663845,0.26860720574739255,1.0132013520795813,-0.022437668293747073,-0.05924725438268494
-0.06906734067876258,-0.19312889422181753,-0.4105898208067084,0.9147222986182721,-0.022437668293747073,-0.05926061876713145
-0.06366823507190353,-0.19627241707929527,-0.44693173254344204,0.9142738297662512,-0.022437668293747073,-0.059287560701175
-0.08059972931257103,-0.1731330110013913,0.15061817696656987,1.0038073605262983,-3.982198346742431,-0.059300513821443517
-0.0824696386194736,-0.16452499283922342,-0.10116851844143646,0.9685008184856323,-3.982198346742431,-0.05928713532748747
-0.07516938387289969,-0.17919421688159082,-0.16493471025067596,0.9789163410171685,-0.022437668293747073,-0.05930941379171694
-0.04857810472283479,-0.214078447620006,-1.9670751595938716,0.5849480049968625,-0.022437668293747073,-0.05932595746647804
-0.0683918139952876,-0.19513107538024432,0.3928261595676641,1.0170203012843058,-0.022437668293747073,-0.05938864005460909
-0.06390115339414341,-0.19939860478318702,0.6048430558237025,1.0250367394494475,-0.022437668293747073,-0.05941897556651681
-0.05262652501609858,-0.2050592170954722,-0.108831282540173,0.9735748966273776,-0.022437668293747073,-0.05940919366063917
-0.03496056878239821,-0.22307160059864745,-2.2935043302850553,0.48131634403698886,-0.022437668293747073,-0.05939015746502827
-0.046325726270679476,-0.21837550418220036,0.7111522978240573,1.0172780478734214,-0.022437668293747073,-0.05944448857235943
-0.0539363895119173,-0.21619901573073433,1.6750462792581298,1.0913145042995627,-0.022437668293747073,-0.05946092870822437
-0.040415208084846777,-0.2197386800147546,1.2783498329227259,1.0530268889861303,-0.022437668293747073,-0.05947392831620901
-0.04762587225689102,-0.2018052796694441,0.14163270155588326,0.9257718646853547,3.937323010154937,-0.059424438672197315
-0.0450206826415159,-0.20185688257395643,0.5758473095385023,0.9781640042218162,3.937323010154937,-0.05944329913075762
-0.02460096264327714,-0.22356239846558443,2.157293157848063,1.1886552741138436,-3.982198346742431,-0.0595001064067102
-0.001890877275058757,-0.24020909044153774,-3.801034318834824,-0.5117192515446103,-0.022437668293747073,-0.05947090559347313
-0.019907840688530774,-0.2307653539922628,-2.788004116894659,0.43567975271983,-0.022437668293747073,-0.059446545478996485
-0.044057397759447114,-0.20429598083480316,-0.49457272828760707,0.9256202500588188,-0.022437668293747073,-0.059436091749110735
-0.01576162911146527,-0.21880791032528313,-0.9581256974166351,0.8519348598604337,-3.982198346742431,-0.05949333006710492
0.002464371053208796,-0.24249314407609396,-2.1188776845419963,0.7074111700295854,-0.022437668293747073,-0.0595171831990546
-0.011525509083567665,-0.2341335225751438,-1.7655542393014172,0.7732365381299574,-0.022437668293747073,-0.05949664132449634
-0.02856082969017015,-0.2131606634318386,-2.0076582446262,0.720341440811004,-0.022437668293747073,-0.05943914767850673
-0.005339958537069892,-0.22665446456119892,-2.840819877449779,0.5720163365350441,-0.022437668293747073,-0.05947680020999003
0.010908369201488499,-0.24621644803520898,-4.987045900689915,0.12083843632439821,-0.022437668293747073,-0.059519356945186286
0.012126703881148287,-0.22712309250691592,-3.649498909935494,-0.2717743683128331,3.937323010154937,-0.05947850476284498
0.0018653101709318585,-0.24934622986360147,-4.343997342014781,-0.12374955009431428,-0.022437668293747073,-0.05952681822359443
-0.010052907052907591,-0.22264602961934937,-3.42942201520611,0.3922817625328475,3.937323010154937,-0.05942941776656247
-0.010116526307311214,-0.22433117669708755,-4.024616285149284,0.3380463536784474,3.937323010154937,-0.0594123896570981
0.009223039888875977,-0.23896517256641736,-2.9855866426146545,-0.6369470769862544,-3.982198346742431,-0.05952119381722363
0.015299182078758572,-0.23286370104226656,-2.36274864279667,-0.7952083046424474,-3.982198346742431,-0.0595126064345299
0.02306520121585641,-0.23531331362465788,-1.5589754240122113,-0.89298492382445,-0.022437668293747073,-0.05950508242874305
-0.002249849388361353,-0.23894645674507167,-4.231718820280659,-0.03498980694428623,3.937323010154937,-0.05950018277373541
-0.006289133109279111,-0.23891958636646557,-2.9045683698837363,0.40762349303608586,3.937323010154937,-0.05952480540035225
0.0021656771180599767,-0.2466062512189303,-2.1517782037045614,-0.434133173663479,3.937323010154937,-0.05952141512306279
0.028210607524583098,-0.2095754377001064,-1.0638417571664114,-0.8929874672415307,3.937323010154937,-0.05946764742487022
0.015738966988299602,-0.22327365057387036,-0.9075848750866543,-0.9873142732944699,-3.982198346742431,-0.0594966502089154
0.01953649884290051,-0.23461278523460197,-1.6317468478587682,-0.6807121122738009,-0.022437668293747073,-0.05948069151101442
0.027421268650446425,-0.2315090018321044,-1.9794131018439798,-0.5836661551898227,-0.022437668293747073,-0.05945713754844259
0.029207426874652664,-0.23117452655584217,-0.884604475639649,-0.9053077374266806,-0.022437668293747073,-0.059484361370849864
0.038948712007908705,-0.2248383543666014,-1.3212210641193902,-0.7946744801158391,-0.022437668293747073,-0.059480016814174946
0.0651074139481836,-0.20276295712610176,-0.9161993943484641,-0.8470472979988342,-0.022437668293747073,-0.059403133590247625
0.04296662767788293,-0.2234208927606651,-0.7722147181256009,-0.8963950232840099,-0.022437668293747073,-0.05946474175611439
0.018287272500459136,-0.23632781915498685,-4.011491537196565,-0.298580744951839,-0.022437668293747073,-0.05947537238695771
0.005473876742927992,-0.2311365707751881,-3.9204994554342054,0.1930085134248794,-0.022437668293747073,-0.05939971435088313
0.0267478230092738,-0.2110759011364688,-2.9405366321821638,-0.6649260697118801,-0.022437668293747073,-0.059347079453138316
0.04491039576748612,-0.18669239179746341,-1.6437438755946427,-0.9257545083349263,-0.022437668293747073,-0.05931444679159101
0.0656688187159066,-0.17226344647566744,-1.130882018164837,-0.9534018569529332,-3.982198346742431,-0.05928081304431309
0.04992174301281944,-0.21295451398004123,-1.4028168753602521,-0.8446945103040788,-0.022437668293747073,-0.059380086801170996
0.04090573266162334,-0.2290374126195073,-2.621442058089884,-0.3195171263295371,-0.022437668293747073,-0.05941159151709849
0.04854670349310317,-0.22118740443711654,1.042355201440206,-1.0859742587417203,-0.022437668293747073,-0.05944812818429754
0.0569355012089654,-0.20555387826410387,1.3927048248116107,-1.1563283740927637,-0.022437668293747073,-0.05943792270756786
0.05054622289710812,-0.2048771128497037,1.3834897522189704,-1.1761723754166071,-0.022437668293747073,-0.05942098966148991
0.053174451700947686,-0.19421811472380154,1.0858863049974352,-1.1580039124349726,-0.022437668293747073,-0.05938556953798522
0.050058850524721844,-0.19356124389532048,0.8338141507978294,-1.140073410902007,-0.022437668293747073,-0.059368128733233445
0.04856890984678868,-0.19603221265330853,0.847036309998605,-1.1381775653546213,-0.022437668293747073,-0.05937855549308776
0.06487803687098473,-0.18555844608553318,0.5166150874193107,-1.0892061173738807,-0.022437668293747073,-0.05931968054585228
0.07019921048409418,-0.18670843022445052,0.6186089076103428,-1.0854122487153244,-0.022437668293747073,-0.05930034092260455
0.0659243148673007,-0.19515287327694725,1.3723959407010278,-1.1591009578152305,-0.022437668293747073,-0.05933010513369963
0.0713576572554359,-0.1889928785132131,1.5103147357506161,-1.1816022352450353,-0.022437668293747073,-0.0593182217861781
0.06720835820427278,-0.1949373120590866,0.4566701365459826,-1.0214475814129251,-0.022437668293747073,-0.059248007005004356
0.057768123758320855,-0.2027282024760388,0.219399210616915,-0.9556455608463834,-0.022437668293747073,-0.0592760639862884
0.06104871258996111,-0.19677076419466002,0.5829197652860503,-1.056923666687791,-0.022437668293747073,-0.05928842544437128
0.08299129381592732,-0.16955524963169025,0.27003756222678943,-1.0696020203557661,-0.022437668293747073,-0.059222745307709594
0.09370448795997463,-0.15891066058654255,-0.17674642215758846,-1.0295563177710216,-0.022437668293747073,-0.059126748685822184
0.08103368615448397,-0.17721282585530843,-0.5559204985742069,-0.9679209608627016,-0.022437668293747073,-0.05913376053096403
0.07464287728423506,-0.18275284781904638,-0.653516833794307,-0.9364096216880525,-0.022437668293747073,-0.059131808534804896
0.07631027042895286,-0.17776977343683345,0.2881949915876179,-1.072792858480851,-0.022437668293747073,-0.059218145254949325
0.0946409585104336,-0.15914500893521644,0.47214663204850776,-1.0891149379337939,-0.022437668293747073,-0.05917411264250855
0.08977282311741858,-0.16977747079040664,-0.0064421607289218705,-1.0333760860953483,-0.022437668293747073,-0.05910165829816077
0.08848025546619905,-0.17188226382960878,-0.13790627234884917,-1.0064466605599582,-0.022437668293747073,-0.05907438414633781
0.09461727128328168,-0.1659730892058729,0.5063729825724115,-1.0889729342878947,-0.022437668293747073,-0.059125503208022345
0.10174441250993749,-0.15027303990755012,0.33189536253543633,-1.0851145122673667,-0.022437668293747073,-0.05906756523557979
0.10141736972357386,-0.14237586582710074,-0.029653577178870984,-1.0609631254091811,-0.022437668293747073,-0.05898303692273647
0.1037871180477095,-0.14139640511296542,-0.1547562982569918,-1.0469450455584053,-0.022437668293747073,-0.05899186341473777
0.0990453535484226,-0.16792238679471186,-0.6983130383465406,-0.9293096519516106,-0.022437668293747073,-0.0589567982531984
0.11484068823741043,-0.16784285109265,-0.6252039745623622,-0.8950824489023682,-0.022437668293747073,-0.05888662349282966
0.11921826991069569,-0.16342204733495866,0.2734346612889005,-1.0177454782148179,-0.022437668293747073,-0.05895225638029068
0.11258545815889684,-0.1558753428920989,1.1653492148136937,-1.1480077352710074,-0.022437668293747073,-0.05909495697110918
0.098312597899857,-0.162499076598997,1.1024096092509266,-1.1435143939604568,-0.022437668293747073,-0.059085032213894814
0.11421500685058308,-0.13712281829452724,0.6835231240945701,-1.1143144746410656,-0.022437668293747073,-0.05894050822841562
0.11465758762007823,-0.1295361808055318,0.3041324681764133,-1.0857118514206467,-0.022437668293747073,-0.058820717943008034
0.09465711385932449,-0.14926891483466226,0.27789619492232703,-1.0767223598462918,-0.022437668293747073,-0.058931283722752775
0.11080265687258721,-0.14572145079401427,0.5919450741102351,-1.1008728280203668,-0.022437668293747073,-0.05893448164041241
0.12133072947712899,-0.14090767587919378,0.7164398183259306,-1.1130958499141768,-0.022437668293747073,-0.058954690990287204
0.12481858415041827,-0.14000512978077256,0.6541518608083273,-1.1082611884235125,-0.022437668293747073,-0.05894063221857626
0.11708189825611989,-0.15173684497460163,0.5289235640469705,-1.0868443491522615,-0.022437668293747073,-0.058973950304710525
0.1511580238983459,-0.12867592428973454,0.35137147472653213,-1.0596422807595356,-0.022437668293747073,-0.05876076302612886
0.13682760873705513,-0.14636609238254808,0.23154077846572088,-1.0274248661781933,-0.022437668293747073,-0.05878112783285166
0.1215241832912379,-0.15494760338809638,0.6203353969095757,-1.0736765427607775,-0.022437668293747073,-0.05890241133589785
0.11766206372877082,-0.14992224918651806,0.6577141701323495,-1.0939443757851537,-0.022437668293747073,-0.05892007066694141
0.13712115734588678,-0.12134489327317764,0.37563416012612255,-1.0799900686582837,-0.022437668293747073,-0.05875952641361194
0.13520522898463963,-0.11295405559248949,0.23179539729221643,-1.0770968807404209,-0.022437668293747073,-0.05866625151777147
0.11681480653644437,-0.1252157386799871,0.21855485899801327,-1.0821486767723996,-0.022437668293747073,-0.05873250641856361
0.12055829395613797,-0.12929401558550122,0.2723800860895687,-1.0726305960177909,-0.022437668293747073,-0.05868555353027295
0.139680772184296,-0.12196252042114705,0.4883480427432506,-1.0850467164338162,-0.022437668293747073,-0.058644321244303306
0.1596810724273665,-0.09998744953953229,0.30124402266042755,-1.072715611987252,-0.022437668293747073,-0.058466600983988384
0.14855872003146753,-0.10031644965761975,-0.15413775470165025,-1.0357570090219483,-0.022437668293747073,-0.058348001340681806
0.13257660012911843,-0.10830907053122914,-0.37269206878529276,-1.016761399937084,-0.022437668293747073,-0.0584095187520172
0.13951187708244206,-0.11228777735831713,-0.16332743998245516,-1.0224850040186548,-0.022437668293747073,-0.05834760882869144
0.15512409713830222,-0.10220408328357708,0.05026969870451576,-1.0429665182981889,-0.022437668293747073,-0.05823453117801483
0.16499473901897926,-0.09135295893161625,0.18975979036417706,-1.0637626802849556,-0.022437668293747073,-0.058210218947518245
0.1372992102237609,-0.118511078326195,0.1606592298684055,-1.0520836589226819,-0.022437668293747073,-0.05851887942972381
0.14290548235298722,-0.12044300239107508,0.2997621104199485,-1.057302614259082,-0.022437668293747073,-0.05850545171023829
0.15732752050777007,-0.10122482894887382,0.3058661042259806,-1.0713317493325036,-0.022437668293747073,-0.058367104817046614
0.17544268566842036,-0.07518187074047364,0.28249356355311456,-1.0775765786127234,-0.022437668293747073,-0.05819764505859598
0.15534853789623093,-0.09065017889563287,0.08865495317159822,-1.0609784831653715,-0.022437668293747073,-0.058280470059588634
0.15654620466715044,-0.09844128956489921,0.07219878291569766,-1.049381519061706,-0.022437668293747073,-0.058246846021295706
0.15867716956340697,-0.09702338272631209,-0.1321967894736986,-1.0221827147522002,-0.022437668293747073,-0.05808003248092185
0.16750961901852524,-0.08481507627275753,-0.07133088718739625,-1.0364148643285784,-0.022437668293747073,-0.057965257039534465
0.16257151596971356,-0.08027240291156318,-0.04858177326827225,-1.0467434091273597,-0.022437668293747073,-0.05803463183371879
0.15822866194832313,-0.08304623163498151,-0.0749987974862715,-1.043990117285825,-0.022437668293747073,-0.058055353150063695
0.15694971494764373,-0.08773738369762744,0.010600492063810503,-1.0504432919999382,-0.022437668293747073,-0.05809234248697924
0.16367798313892418,-0.09309308811456173,0.2332574471765656,-1.0633660396717182,-0.022437668293747073,-0.05812245270535596
0.16892303281812815,-0.09074892888106038,0.36791689466994804,-1.0755229555696062,-0.022437668293747073,-0.058073253010936174
0.17161602732740525,-0.08289313994093753,0.34485265052522324,-1.0782105573357477,-0.022437668293747073,-0.058018214066881665
0.17976922578231566,-0.07070382120021435,0.5903072941446493,-1.1048874589534246,-0.022437668293747073,-0.05809051909477213
0.16333832913117555,-0.09615766880195536,0.7105939733187054,-1.1048714491709684,-0.022437668293747073,-0.05823136799100568
0.16493664244827133,-0.09681852238773732,0.612730509744235,-1.0909641503184635,-0.022437668293747073,-0.058166760894367855
0.17576835307038088,-0.09173218816910969,0.4745999146632433,-1.0747303795100758,-0.022437668293747073,-0.05803481026008167
0.20425514849915088,-0.06700680751633228,0.6111259471417785,-1.0987585655651466,-0.022437668293747073,-0.05792351160033553
0.19797614304341296,-0.07324039355971629,0.3762635593269551,-1.0747615723210366,-0.022437668293747073,-0.05785078821805624
0.18230688785206986,-0.08332008289889481,0.07353024923626025,-1.043541870266925,-0.022437668293747073,-0.0578995750201943
0.17624390585138372,-0.08621948776819066,0.08712797191360225,-1.0462127788613549,-0.022437668293747073,-0.05798821993374159
0.17205411430208628,-0.09293739416216457,0.3389109531262827,-1.064613335975017,-0.022437668293747073,-0.05809115719823717
0.19376051384206444,-0.07497072868857221,0.6057529322316523,-1.0948465636612572,-0.022437668293747073,-0.05799859626164308
0.2026314473197642,-0.06494760096118825,0.5664091046005203,-1.0928175491940846,-0.022437668293747073,-0.057838969754748094
0.2024744717071488,-0.05765667850850467,0.38390474637762717,-1.0811671881290095,-0.022437668293747073,-0.05770294888483081
0.1778669968739172,-0.07522569090689038,0.25686565806802525,-1.069022915968283,-0.022437668293747073,-0.05784762320799414
0.17750946621070787,-0.06946222874177348,0.1242172803713776,-1.0625363588142065,-0.022437668293747073,-0.05779670304079722
0.19509268836625154,-0.05413510077726152,0.15554699912545927,-1.0682320757517265,-0.022437668293747073,-0.05766878059603666
0.19912941792114905,-0.05292889768587156,0.03307086227860164,-1.0545655397493547,-0.022437668293747073,-0.05751584200782447
0.19248915842047168,-0.0629828147475847,-0.037183316019250734,-1.0414450634833643,-0.022437668293747073,-0.05754698336291986
0.1939233038968057,-0.060739172569426944,0.0712778937929298,-1.0535394737190948,-0.022437668293747073,-0.05757100813986538
0.19157709761798758,-0.06248649111630456,0.11500124335921369,-1.0554268410691279,-0.022437668293747073,-0.05759521268178815
0.19078983598913965,-0.054655273716432716,0.10875482328200536,-1.059470412266904,-0.022437668293747073,-0.057541375165119826
0.1984609623477014,-0.03941279167159036,0.04963521198326282,-1.0580268675574258,-0.022437668293747073,-0.057407457690985625
0.21370113948062194,-0.034649377836515394,0.20016907087186278,-1.06769250818663,-0.022437668293747073,-0.05734783312149518
0.20520459675894495,-0.05664888750123853,0.1284024455162571,-1.0449287051995588,-0.022437668293747073,-0.05732147212873648
0.19357888337274193,-0.07064454893907154,-0.00797775270660747,-1.0138962179096973,-0.022437668293747073,-0.05732870896545766
0.20529715929535872,-0.05079427651471898,0.369286179230361,-1.077140931814629,-0.022437668293747073,-0.05747691584439794
0.20815710904946466,-0.04830352451475604,0.4873853990191024,-1.0907599758927766,-0.022437668293747073,-0.057502276636986406
0.20704151398073106,-0.05386903072778467,0.43148685944676596,-1.0820372709464354,-0.022437668293747073,-0.057449148286315484
0.21518216818207328,-0.0508791745491813,0.35665215042475756,-1.0717373896881441,-0.022437668293747073,-0.05731406759773154
0.21964468733596906,-0.0408179944749809,0.3929431055639189,-1.0803762491917126,-0.022437668293747073,-0.05728777329566388
0.22062276057241226,-0.026288996289161655,0.36220977130908893,-1.085063357692305,-0.022437668293747073,-0.05721476554285809
0.21692458158590303,-0.01890131505851036,0.2889056651522899,-1.0824456950365535,-0.022437668293747073,-0.05715014060402829
0.2061658344842743,-0.03639744737900265,0.04747519795290137,-1.0505479770985457,-0.022437668293747073,-0.05700564360814743
0.19429415670903544,-0.05431497005868704,-0.2862477517354391,-0.9969481127035393,-0.022437668293747073,-0.0569200162879394
0.20987834904389552,-0.041240959230841465,-0.18927994095491274,-1.0211983344805777,-0.022437668293747073,-0.05690643559555588
0.23121377450589606,-0.02104758566837244,-0.054476473625849176,-1.04340993087536,-0.022437668293747073,-0.056819509669467944
0.23105109200668889,-0.02220756032390693,0.01444024913471513,-1.049647065979311,-0.022437668293747073,-0.05690368250866342
0.21651507958858524,-0.03780511166012664,0.07758779217447866,-1.0518039846382714,-0.022437668293747073,-0.057067957377280806
0.2146063951156056,-0.0387471216914272,0.34303462083997893,-1.0789418467910619,-0.022437668293747073,-0.057232777373671134
0.23073502468281587,-0.022158436402895276,0.554862220775803,-1.1016946355739021,-0.022437668293747073,-0.05723335735242198
0.22880463727982525,-0.03339921689274167,0.4852205656486281,-1.0900592983403778,-0.022437668293747073,-0.05716520351154739
0.22717973080456733,-0.050878464237439754,0.14058876862391925,-1.0312460185058974,-0.022437668293747073,-0.05690603210719196
0.2388015632571657,-0.03983495176035341,0.1638537670094534,-1.0415340830477697,-0.022437668293747073,-0.05680448111676175
0.271178533312548,0.01017602942075505,0.3029037862505096,-1.0744742940466392,-0.022437668293747073,-0.05670012218897845
0.2533262358286878,-0.0042610612907668525,0.2500646239103129,-1.0717648671749231,-0.022437668293747073,-0.05684093433802478
0.23462642235173806,-0.037873528775739435,0.08127840511529891,-1.036926327214086,-0.022437668293747073,-0.056822514880601395
0.21494583439270712,-0.06826853419207134,-0.4772715769587375,-0.9178159539473164,-0.022437668293747073,-0.05665761379295622
0.23862885109775694,-0.043011849906375,0.11805799230014788,-1.030173848568789,-0.022437668293747073,-0.05678920724300807
0.24672747349285606,-0.02236834654842457,0.3366813301013355,-1.0712668878268865,-0.022437668293747073,-0.05681594980627801
0.2525533669139886,-0.010508166283130097,0.45150285832740056,-1.0870823912991603,-0.022437668293747073,-0.05675397351027418
0.23970237528792543,-0.019113956946569585,0.44209671713498927,-1.085874729066943,-0.022437668293747073,-0.05682970271984408
0.23399060530426324,-0.01892544183970437,0.4116036623520295,-1.0847026299654583,-0.022437668293747073,-0.05691763531978286
0.23367159315449856,-0.011297538554651121,0.3444609775159376,-1.0825204092886374,-0.022437668293747073,-0.05675772850884844
0.23942385260070234,-0.006147851833145239,0.4025052626582985,-1.088026282211084,-0.022437668293747073,-0.05666825084842366
0.2466485766042247,0.001843274544866709,0.4863172931777173,-1.096806991768618,-0.022437668293747073,-0.05669551085214196
0.22024649835906632,-0.0321824751847242,0.35442355026667505,-1.0745491002295486,-0.022437668293747073,-0.056901003767146775
0.21430935762251105,-0.038271586513582624,-0.06254159703658231,-1.022632182933085,-0.022437668293747073,-0.05666537332530967
0.2469991158084169,-0.012145262088075317,-0.03409728864326273,-1.034702875757752,-0.022437668293747073,-0.056323432088372705
0.28068951898108846,0.01807384275047927,0.14273671437644408,-1.0584599992126196,-0.022437668293747073,-0.05607208377734118
0.26977431143901465,0.003831395997877056,0.3192916955377486,-1.0739657181239943,-0.022437668293747073,-0.05634708587968516
0.23719998128806627,-0.024002512800983807,0.18549082330076044,-1.0553656076395006,-0.022437668293747073,-0.05657934076555252
0.2314350797693106,-0.024477573488565284,0.1690380687330855,-1.0561086061255966,-0.022437668293747073,-0.05668433487507504
0.2427207578499601,-0.0033167961233032408,0.09018050377397845,-1.0566186216557325,-0.022437668293747073,-0.056358746652379166
0.26329125474734505,0.020025432774088244,0.17749327310539387,-1.0690058657850354,-0.022437668293747073,-0.05607812591671141
0.26197394791539513,0.00706495458844109,0.08770980470538753,-1.0533017385169605,-0.022437668293747073,-0.05612095501429347
0.24905447811804934,-0.012237820283377882,-0.010121582205444854,-1.0356004500594382,-0.022437668293747073,-0.05639276989607676
0.2502679367467654,-0.0028309144427860356,-0.07883164993476616,-1.0352876554354231,-0.022437668293747073,-0.05635333615739494
0.25099730969739514,-0.006769933422934561,-0.15251350623741589,-1.022082515731225,-0.022437668293747073,-0.05602856753928188
0.251763210398683,-0.013057124985737217,-0.019823533474070648,-1.0309642330643223,-0.022437668293747073,-0.05611908606851958
0.26585041221583383,-0.0014339867816785543,0.23610268825148267,-1.0645693869535802,-0.022437668293747073,-0.05622251353804048
0.28182847537108957,0.023897663426128313,0.23150450914420362,-1.0707648402607954,-0.022437668293747073,-0.056167424500918786
0.28136400134021766,0.020758060481373304,0.07997215940367114,-1.0547358879949862,-0.022437668293747073,-0.05603187793298664
0.2633471545764209,-0.0026833265656312144,-0.03316251582897514,-1.0356321084316467,-0.022437668293747073,-0.05604652290337765
0.25953981882306154,-0.010585834580078196,-0.095078094635651,-1.0181654160603413,-0.022437668293747073,-0.05594383455387091
0.2619853592294976,-0.003601626049270824,0.09778948232321936,-1.0440796395717582,-0.022437668293747073,-0.05612784060214082
0.2626781864771266,-0.0012298430025289326,0.2536351375187436,-1.0617904946132954,-0.022437668293747073,-0.056231444443169215
0.24904916993408047,-0.018492024444758767,0.3887868597339845,-1.0677456244231889,-0.022437668293747073,-0.0563954509136814
0.25064314851799036,-0.007526574537044655,0.41229557758439456,-1.0787899090520938,-0.022437668293747073,-0.05630718623803272
0.2646652742559141,0.024329989318421497,0.4049072812023374,-1.0902561122077479,-0.022437668293747073,-0.05613771314429677
0.2607554400499811,0.026830648051578733,0.2806806153601048,-1.0815818870213598,-0.022437668293747073,-0.055995189594871445
0.2676095949530786,0.019017982434796188,0.30036328459991857,-1.0776422950150952,-0.022437668293747073,-0.055999201929613794
0.2714418452972375,0.013361198402913239,0.2514928387307903,-1.0692261114479578,-0.022437668293747073,-0.05595431911020362
0.2812382501571492,0.01535517740338703,0.2584792721920619,-1.0667234869223998,-0.022437668293747073,-0.05580583201351631
0.2624916812861752,-0.0008914737080214446,0.30508543026368373,-1.0697848651553352,-0.022437668293747073,-0.05610687875364849
0.2593464419758261,0.00043330443128079533,0.3770584695561809,-1.0793579633423214,-0.022437668293747073,-0.05617579620622654
0.26076832221258167,0.01585262975503786,0.24943016143345226,-1.0757024245953668,-0.022437668293747073,-0.055943690274355654
0.27496653242539604,0.03038542426634856,0.22394182866902027,-1.0739978935891092,-0.022437668293747073,-0.05566855307501995
0.27694807366909724,0.02549001981511052,0.34178516902095113,-1.081682782404757,-0.022437668293747073,-0.05582377412584135
0.2687742414148875,0.012123254403162722,0.5016950020905483,-1.0928732858600838,-0.022437668293747073,-0.056051675214163536
0.2629720483163855,0.009290268332945509,0.5380503528176531,-1.0970515622169754,-0.022437668293747073,-0.05608283154446798
0.2609368242826339,0.010391821149267266,0.45210772570742885,-1.088817853634127,-0.022437668293747073,-0.05597894857086512
0.26681848104198913,0.022200950213351184,0.18228488989921907,-1.0645495066074215,-0.022437668293747073,-0.05563468434782519
0.26457815969250026,0.016776366743068614,0.08773335774544679,-1.0514508724086742,-0.022437668293747073,-0.05558329694396447
0.27299427147287664,0.018140061222174726,0.30457771444026127,-1.0723990037573108,-0.022437668293747073,-0.055769531931696224
0.273151169074712,0.0074651407680648785,0.4805177791790616,-1.0838870890661294,-0.022437668293747073,-0.05593494382599726
0.2827688145035345,0.015900007805420252,0.4234503622289899,-1.0796460816777558,-0.022437668293747073,-0.05576587491457361
0.285000911906673,0.027249722461203416,0.30752237265005566,-1.0738676443508273,-0.022437668293747073,-0.05560282255400488
0.29138113925847037,0.04263467453023039,0.31275989768503915,-1.0786568393079359,-0.022437668293747073,-0.0555293179586805
0.2845279613632119,0.036829646336186864,0.42866101425597886,-1.0904575123856106,-0.022437668293747073,-0.055798411631383785
0.26340219413459215,0.0023745400304609125,0.43084082849392236,-1.0787507517072936,-0.022437668293747073,-0.056019056631638725
0.25953049226695657,-0.001179514625456226,0.3598310431819212,-1.0718839648832148,-0.022437668293747073,-0.05605390256287347
0.28865603361609715,0.02382900881426059,0.33363160933647884,-1.0746199547967394,-0.022437668293747073,-0.05567933583642519
0.31327473831894126,0.04836747903897318,0.29881478551365165,-1.0748936920313024,-0.022437668293747073,-0.05530727795232695
0.2979156853211327,0.02880343838946152,0.13033528711609,-1.0523923210688526,-0.022437668293747073,-0.055243040994225695
0.28227367739445003,0.018752570086624697,0.08576866634515894,-1.0475424397415185,-0.022437668293747073,-0.05543665761226872
0.2826828630510414,0.024192106158011886,0.24688718240945304,-1.0679659023351618,-0.022437668293747073,-0.05558284883895208
0.2741588221974777,0.016964473553773375,0.4669927806441216,-1.088533268775358,-0.022437668293747073,-0.05585594974679235
0.2849007407688911,0.025112225834679223,0.6278753837750195,-1.1037797606737285,-0.022437668293747073,-0.05582828979002963
0.29765281244668973,0.03748538100116702,0.6528430795757043,-1.1061590181644327,-0.022437668293747073,-0.055714836200246545
0.28261409463153747,0.025343537028885248,0.4290104160233786,-1.0826203415576594,-0.022437668293747073,-0.055551245380597636
0.26937936815023433,0.017747578004835337,0.20072339047361185,-1.057667907306799,-0.022437668293747073,-0.055410602615812446
0.2819376971817732,0.036297464860962934,0.13807748699757666,-1.057965336992579,-0.022437668293747073,-0.05512299315464718
0.2983032328833014,0.048600917952903756,0.2522966298575052,-1.0701872059047763,-0.022437668293747073,-0.05508265639948954
0.2901452366473935,0.03826769624570364,0.2030364895770529,-1.0623081076834229,-0.022437668293747073,-0.05508702651952627
0.30045642185449933,0.04594143820049511,0.24824330624603436,-1.0684308820305701,-0.022437668293747073,-0.0550050581069481
0.30947317277502134,0.06165660293489205,0.2645976495674525,-1.0744720232590526,-0.022437668293747073,-0.05495644271354656
0.27871091849320323,0.02640536973176849,0.25644510556388955,-1.0671807800507556,-0.022437668293747073,-0.055334355454484986
0.2631214844362723,0.013050679697432559,0.25469090658844845,-1.0636923979395079,-0.022437668293747073,-0.05549811514121426
0.2748343133464905,0.018158620202943235,0.41938908409452347,-1.080540123342847,-0.022437668293747073,-0.0556117210016285
0.29405428270863815,0.03197910756023154,0.601891599025287,-1.1002997753999733,-0.022437668293747073,-0.05567188578068768
0.30176536226515616,0.030741679433823808,0.5913953312711084,-1.0949897532301964,-0.022437668293747073,-0.055464887302862684
0.3006252903763531,0.02998433195442822,0.5952846648366145,-1.0961978022525178,-0.022437668293747073,-0.05549377882415532
0.2912690300929279,0.028237975501777434,0.5160556107373105,-1.0924249143015234,-0.022437668293747073,-0.055609817102823936
0.2953511608751425,0.03352521312867119,0.4266468861482595,-1.0858046339926446,-0.022437668293747073,-0.05556167864834252
0.31597462110153196,0.048592594848795,0.2980637701153712,-1.0728188421050804,-0.022437668293747073,-0.055093134118929174
0.30342736945293747,0.03722808740923013,0.2301329887169748,-1.0650729525855545,-0.022437668293747073,-0.05524868138090066
0.28780513865804075,0.03325841383347227,0.13024697082589376,-1.0589830491695185,-0.022437668293747073,-0.05528328767347512
0.29274862032445137,0.043326984724804646,0.03947017195405029,-1.052018171707405,-0.022437668293747073,-0.05499541545329472
0.30281424217823916,0.05660445834966353,0.028365511814030967,-1.0531082604364543,-0.022437668293747073,-0.05472520299163236
0.29499332638618686,0.046560045778643734,0.07427682423018588,-1.0551501175240114,-0.022437668293747073,-0.05493263380003065
0.2963753957942087,0.03997663682143342,0.19792466212927204,-1.063800994928079,-0.022437668293747073,-0.055127274764062796
0.3000224061268483,0.03840570369690659,0.21932711483934042,-1.0633098838649082,-0.022437668293747073,-0.05512755906361344
0.29995000801692395,0.0372270429629616,0.29125062887480035,-1.0702430977667308,-0.022437668293747073,-0.055226312715374475
0.30124812057361716,0.037831101355690455,0.4048323880026297,-1.0823890769616753,-0.022437668293747073,-0.05531497080436598
0.30510843049740904,0.040109081635495876,0.49856075070444095,-1.0923577095912322,-0.022437668293747073,-0.0553844455031006
0.3099182866578473,0.044766179607080694,0.39214587549689983,-1.081496829330791,-0.022437668293747073,-0.05510532289197278
0.30523071007188374,0.04086363914686481,0.337932714353016,-1.076579935694956,-0.022437668293747073,-0.05509582168911816
0.30751339175902553,0.04762257949226084,0.2180146643219981,-1.067173519422752,-0.022437668293747073,-0.054922114549270415
0.29684483132142647,0.045568405277152765,0.06445144501159564,-1.0541337975684042,-0.022437668293747073,-0.054853714034637145
0.2913491063055809,0.03855483893091356,0.06404352598784756,-1.051658936012517,-0.022437668293747073,-0.05496983737218835
0.29790868156215794,0.038476148586153176,0.27815678941131944,-1.0722550894371112,-0.022437668293747073,-0.055202952313805065
0.3184750585888872,0.04762255153952007,0.43430469137016087,-1.0843019008442967,-0.022437668293747073,-0.05516664128367212
0.3278246571371978,0.05274777827162866,0.4232289836130715,-1.0823486877317796,-0.022437668293747073,-0.054932419573095394
0.3154511298472056,0.04497938554457028,0.44929493723793285,-1.0860323700414396,-0.022437668293747073,-0.05511220416525115
0.3089243497785558,0.04298542204771619,0.4896650330028158,-1.090843849549555,-0.022437668293747073,-0.05521087553365356
0.3103074568355421,0.051344644019201975,0.4484596230501876,-1.0883891820665605,-0.022437668293747073,-0.05514922849535494
0.31485181287182396,0.06390110230040091,0.3024063455778756,-1.0761241594541917,-0.022437668293747073,-0.05478885745692139
0.2863156373336461,0.03624589984916631,0.14104975084474586,-1.051717106070324,-0.022437668293747073,-0.054814396671891565
0.28930790684748386,0.03150200490813812,0.2897713467345871,-1.061950476385407,-0.022437668293747073,-0.05493486516644895
0.3270285056002105,0.060152097015483845,0.5812226756812708,-1.0971818007308207,-0.022437668293747073,-0.05490023195093526
0.33270381019517636,0.06304056372386466,0.5358590781984746,-1.0919066551725112,-0.022437668293747073,-0.054837004434547094
0.30737004518511357,0.034703695256288636,0.37879411245499545,-1.0700311296696023,-0.022437668293747073,-0.05498866811231143
0.29644698786128365,0.026026757119798828,0.40892038042365825,-1.0730075361045721,-0.022437668293747073,-0.05524802336447376
0.31618797074956634,0.04104237253992943,0.47853415056405213,-1.0820573180115078,-0.022437668293747073,-0.05497472298234038
0.3217375900946534,0.04766476443245936,0.30667740961466916,-1.0649209259876469,-0.022437668293747073,-0.05456776128552017
0.33972636665296235,0.06953486724558221,0.2999339519681964,-1.0701860477170295,-0.022437668293747073,-0.05433680633269709
0.33317318508681804,0.06469620949860723,0.38662457164106845,-1.0784689196139947,-0.022437668293747073,-0.0546431528009263
0.30007534803063707,0.02636212771156249,0.34461194146434354,-1.0599732300107312,-0.022437668293747073,-0.05492481985657701
0.2870399805178199,0.02030478432353022,0.29573868116739654,-1.0533875263047596,-0.022437668293747073,-0.05496599508524498
0.30735354338893345,0.045418446971066756,0.4800497136398678,-1.0870152894199439,-0.022437668293747073,-0.054955474305737585
0.3273284626962846,0.07386630458142547,0.49047838716113995,-1.0945615674048652,-0.022437668293747073,-0.05483121479644644
0.3293551097206347,0.0738550148363444,0.3253143078963757,-1.078563197946578,-0.022437668293747073,-0.05447670545157546
0.32737789809464785,0.07906605043873006,0.2017773120342096,-1.0693341687113034,-0.022437668293747073,-0.05431625145928597
0.31698816337294833,0.06768782657299961,0.15532184073197608,-1.06194959308948,-0.022437668293747073,-0.05433804431665873
0.3069703956051973,0.054245324890981196,0.2467121791290656,-1.0675407011022104,-0.022437668293747073,-0.054656669605116906
0.29992455874696755,0.04170274990054184,0.2957423753874693,-1.067524790649689,-0.022437668293747073,-0.054860116472067406
0.30203217744678107,0.0504259890539633,0.3725091439774014,-1.081507430014378,-0.022437668293747073,-0.0550206673840281
0.32960240192738505,0.07901317016385573,0.342653384743157,-1.0815868278293626,-0.022437668293747073,-0.05452356940805638
0.3219344245563917,0.06518820332612763,0.2463990837617164,-1.0687374234106093,-0.022437668293747073,-0.05448835312436369
0.3042261462207957,0.05190826457525364,0.06310986363504759,-1.048541792244006,-0.022437668293747073,-0.054479206962809515
0.3070226512233479,0.05302583701484856,0.0576368338429369,-1.0485648202407414,-0.022437668293747073,-0.054483234521854995
0.32598702546875846,0.07196463558654216,0.06816126796646169,-1.0533008474465075,-0.022437668293747073,-0.05420291410430737
0.3245056542056816,0.07028633099542174,0.1797140278279969,-1.0653100626700265,-0.022437668293747073,-0.054535342082868046
0.3137848946746237,0.06424796769759875,0.21520033269025424,-1.0699637671983837,-0.022437668293747073,-0.05474824615908978
0.3300354033635165,0.06555439978790302,0.30546843631114223,-1.0727198990009066,-0.022437668293747073,-0.054592050781305315
0.3408686558852479,0.06954762835465074,0.28429433917391195,-1.0668889464544262,-0.022437668293747073,-0.054242699666359924
0.3388462655280974,0.06766653174075155,0.3865882976006732,-1.0768104633736824,-0.022437668293747073,-0.05442256769678951
0.31232178255735943,0.04430467683525412,0.3292339449216583,-1.0662690658344367,-0.022437668293747073,-0.054716591881173546
0.3038195680471124,0.038720427961327776,0.2503281335130759,-1.0548181647378687,-0.022437668293747073,-0.05466450806415595
0.31536647417196884,0.056967341643841984,0.24349889674965866,-1.0606131409555672,-0.022437668293747073,-0.05434920431106273
0.32163456086193687,0.07387779975435896,0.22849961016024214,-1.066397672433316,-0.022437668293747073,-0.05417457768719679
0.3175794447403309,0.07200603785496162,0.25586694447402974,-1.0703916713774713,-0.022437668293747073,-0.05435641575170942
0.33329340493469056,0.07709122048160659,0.3729072778958334,-1.0799617592314614,-0.022437668293747073,-0.054386142970329315
0.3322282333587686,0.0583698419286535,0.3936335528764712,-1.073347033228316,-0.022437668293747073,-0.0544724129567006
0.3241151947408985,0.04773546517433459,0.19175362589905098,-1.0476761799830194,-0.022437668293747073,-0.05430022208297096
0.33342038730553336,0.06326442077504485,0.26701300336925227,-1.0638724818341339,-0.022437668293747073,-0.05432763412158186
0.3399864584794383,0.07690095402652304,0.42884526324253025,-1.0852327831384905,-0.022437668293747073,-0.05449229609140791
0.3318624170430673,0.0730907325424144,0.4263303796612587,-1.0855320305947185,-0.022437668293747073,-0.05452863548464398
0.3195205701839366,0.06276133799663827,0.3295475237530505,-1.074214978872917,-0.022437668293747073,-0.05457010669840212
0.31422910015077293,0.05108252883255582,0.2310719491463909,-1.0564572310508848,-0.022437668293747073,-0.05440238824552356
0.31062208253971696,0.0498423280910662,0.2549838164291348,-1.0587932746906328,-0.022437668293747073,-0.054389715911458594
0.3221636009498628,0.06853063290180776,0.373613219175841,-1.0788207523134652,-0.022437668293747073,-0.05438885168361723
0.31385174439519403,0.058113345827133296,0.4482924162661812,-1.0846353304052265,-0.022437668293747073,-0.05468736159542103
0.3139757684504102,0.04703395153406798,0.48423255711393576,-1.0813888198650587,-0.022437668293747073,-0.05472828022149775
0.3286378284070046,0.06603534447051679,0.40511825392602535,-1.0787543082213742,-0.022437668293747073,-0.05436778051836177
0.3404843923526303,0.08362241588581415,0.4038462655950532,-1.082549125099876,-0.022437668293747073,-0.05429576408821076
0.31999646330128917,0.06921278180499849,0.2807981525751911,-1.0714481984298059,-0.022437668293747073,-0.05438314548867989
0.31851432297107074,0.06561357289487048,0.25096871096150447,-1.0665433731925709,-0.022437668293747073,-0.05432144172316017
0.3133472045970766,0.057646422666658495,0.3137983835178147,-1.0701117341101154,-0.022437668293747073,-0.054444875821261944
0.31973429062232683,0.06010649569278594,0.5222330772994286,-1.0907939766530879,-0.022437668293747073,-0.054730459076708586
0.30837234390159957,0.0519303987289767,0.4901429655688961,-1.0876655858244741,-0.022437668293747073,-0.05484339816969962
0.311060592723061,0.05171824092644101,0.356572470395238,-1.0711786702040866,-0.022437668293747073,-0.054554771734843605
0.31432262105003994,0.055929538126760804,0.24671121246953243,-1.0610882154823895,-0.022437668293747073,-0.054345768894817695
0.3318811989362191,0.07639385351840501,0.24592351965506476,-1.0680763914589466,-0.022437668293747073,-0.054095481463306484
0.3303911349288348,0.08463489447716006,0.18511899131918516,-1.0671958017063294,-0.022437668293747073,-0.053995979527068985
0.32328905080320514,0.07668471804561183,0.23557301327369756,-1.0716869683900474,-0.022437668293747073,-0.05420220725405484
0.31099401677634253,0.05978693830297802,0.35564341099402125,-1.0810104980824475,-0.022437668293747073,-0.05465532998274762
0.3159600795113574,0.052281686974117,0.4775576831433822,-1.0872809639743308,-0.022437668293747073,-0.05480413977699044
0.33126103958562436,0.07420292941268321,0.41410312654774845,-1.0866034257061872,-0.022437668293747073,-0.05444867714108755
0.32956012424490505,0.08215706390149458,0.32019392875518277,-1.0813725492853907,-0.022437668293747073,-0.05426880747749729
0.31928703808663916,0.08124943899565815,0.21515482149301532,-1.0728708926071042,-0.022437668293747073,-0.05406015409042793
0.3227194478214574,0.0811118136739467,0.3392678177225612,-1.0829306591717534,-0.022437668293747073,-0.054174253469087365
0.32907348929996133,0.08485384607127897,0.45879916285875055,-1.0931746668399958,-0.022437668293747073,-0.05435833515643754
0.3129880407424664,0.06024809958991297,0.44252454315419293,-1.0855265735704374,-0.022437668293747073,-0.05471739295830868
0.3146982935470712,0.06085727687723134,0.16018359885757458,-1.0559861770128098,-0.022437668293747073,-0.05429871343289361
0.3232997078105155,0.0576356288051191,-0.10404964980679295,-1.0186761842938974,-0.022437668293747073,-0.0536728343060545
0.32814226360844206,0.060500829437388486,-0.10888441490021532,-1.0180067153844365,-0.022437668293747073,-0.05355441998478779
0.3236460009612323,0.06319038833199622,0.18167296816259784,-1.0567916230140284,-0.022437668293747073,-0.05418361340704666
0.3243562711807114,0.08068390161439624,0.4256411015515076,-1.089636133671362,-0.022437668293747073,-0.05461653245611053
0.31700814549270856,0.07324541643048059,0.5445259494130713,-1.101121553682116,-0.022437668293747073,-0.05476645746114807
0.3100730520789814,0.056763349280663865,0.4839120575124458,-1.0891388120239547,-0.022437668293747073,-0.054619897101843916
0.32273009333844094,0.06413355905665606,0.48546536961798714,-1.088391957096459,-0.022437668293747073,-0.054436219813663575
0.3249339693610786,0.07237665152906672,0.38636437861617734,-1.0825231784425566,-0.022437668293747073,-0.054322175525093545
0.31962902747297894,0.0705242287918782,0.3319372285502928,-1.0791156896870555,-0.022437668293747073,-0.054430876431118096
0.3113539888595942,0.05953654000595867,0.303662810499358,-1.0740915686105759,-0.022437668293747073,-0.054504232591653504
0.3157852565396505,0.05813489441011411,0.3805044041725163,-1.0795759561879001,-0.022437668293747073,-0.05449501124360409
0.32549186016356474,0.062064063599610066,0.42816044582076185,-1.082629929664024,-0.022437668293747073,-0.05439753721916966
0.3271015334936674,0.06060856773053779,0.4822441880620673,-1.0861300830078122,-0.022437668293747073,-0.0544729694257202
0.3275598307931275,0.06705107211599616,0.6051830394022065,-1.101767081753898,-0.022437668293747073,-0.054654835732450946
0.3180647514821371,0.06844011066205488,0.5109571848007632,-1.0948884893980726,-0.022437668293747073,-0.054598144403925464
0.30680427975318647,0.06443274756132841,0.25609463901544643,-1.0696310126848096,-0.022437668293747073,-0.05432692010219864
0.3046973254778427,0.0662926937411528,0.17697442358882934,-1.0639606059434097,-0.022437668293747073,-0.054319461622799145
0.3194475945879967,0.0654852172064864,0.2905485251855887,-1.0711585879160292,-0.022437668293747073,-0.05434285342200621
0.33415318393550114,0.06642102027948082,0.5297165559632253,-1.092547426575282,-0.022437668293747073,-0.05455553127237388
0.325897245803094,0.05603883968539206,0.4653875190724558,-1.0844026791217811,-0.022437668293747073,-0.05458272917418625
0.3306056042169146,0.06780599859439469,0.4496211365712525,-1.0879903220257767,-0.022437668293747073,-0.05460353960801881
0.327839090226087,0.0671176072012137,0.23934003909002496,-1.0669430727325835,-0.022437668293747073,-0.05426223983984919
0.3253312536353632,0.06641077080627952,0.29482446611143065,-1.0744225182187694,-0.022437668293747073,-0.05441567302667146
0.3145000611055962,0.05974505662295585,0.2829220652985548,-1.0746116478973176,-0.022437668293747073,-0.05456970752555224
0.31740319125585637,0.061313804379060075,0.31204821231676594,-1.0776411822302385,-0.022437668293747073,-0.054613619850311344
0.31006640725484075,0.05066823570691153,0.29122384715509936,-1.072568015448233,-0.022437668293747073,-0.05481381675629587
0.33429258306311277,0.0675376620804249,0.3463038084396731,-1.0776459618903391,-0.022437668293747073,-0.05457693303081253
0.3392539857790127,0.07566380456881412,0.28173396872727346,-1.0730081039409542,-0.022437668293747073,-0.05438144182161297
0.333692152726296,0.0689951767182099,0.14770133176863073,-1.05629991730526,-0.022437668293747073,-0.05408587795220294
0.3143943543879739,0.04836395208593451,0.19956245408314452,-1.0562805613493964,-0.022437668293747073,-0.05452747142623949
0.33829488479695574,0.06777730309581251,0.4212162393845398,-1.0811362833491185,-0.022437668293747073,-0.05450454932368786
0.3397627373716414,0.07264202620251559,0.5307350985660909,-1.0936436696460943,-0.022437668293747073,-0.054679212797348824
0.30934489609487864,0.04327063091088458,0.49304764197754314,-1.0859614387181928,-0.022437668293747073,-0.05498685741447049
0.2998047161356284,0.035161533577856646,0.4350669889385463,-1.0784793941972104,-0.022437668293747073,-0.05503334958279661
0.3195860936137111,0.052149469878539904,0.38228483714860345,-1.0747751872303812,-0.022437668293747073,-0.05452060412558875
0.3392635576885219,0.06985157567248156,0.4056492671271026,-1.079331029189992,-0.022437668293747073,-0.05419264419179331
0.3238030484631443,0.05712764110212191,0.46896603428578254,-1.0844013542925104,-0.022437668293747073,-0.05452768471695646
0.3191374431856612,0.06343608160538368,0.537931015391315,-1.0962974017826121,-0.022437668293747073,-0.05474444986549954
0.30733120171599543,0.05865864380839826,0.5439689458313197,-1.097798027606725,-0.022437668293747073,-0.05485755170614973
0.31284313198848657,0.06471492667106327,0.4887955689973087,-1.091432387694534,-0.022437668293747073,-0.05458931492790118
0.3148690055741379,0.06539308388495511,0.5049756910075237,-1.0914704362245524,-0.022437668293747073,-0.0545325256417599
0.3165183866432458,0.0700825530460389,0.4657631870266118,-1.0881338130650815,-0.022437668293747073,-0.0543424958248129
0.3037343042792806,0.0586171472301654,0.5053035381485362,-1.0901683896395504,-0.022437668293747073,-0.05455898451835957
0.3094514326208152,0.06063037808126601,0.7058809812260183,-1.11066979450228,-0.022437668293747073,-0.05481740858682888
0.3081184616159881,0.05358905716331792,0.833761914131401,-1.1216403801426242,-0.022437668293747073,-0.05514066656276216
0.3127042595508072,0.0626216838564207,0.6461175401221271,-1.1063298452512087,-0.022437668293747073,-0.054872075044962144
0.31437392519665996,0.06231358280289303,0.4103420417713929,-1.0818308496460163,-0.022437668293747073,-0.0544438792913773
0.3192121306575625,0.07057662778871826,0.2701333123139426,-1.0708524181724872,-0.022437668293747073,-0.054186273829435215
0.31526236399226165,0.06111321101466498,0.27042602255881365,-1.068428390750975,-0.022437668293747073,-0.054356770888252554
0.3195216967575954,0.06334411477053517,0.24848039800578964,-1.0673860234853967,-0.022437668293747073,-0.05434490007927307
0.33371025118354664,0.07253896545738829,0.36103125081046505,-1.0796426962189951,-0.022437668293747073,-0.054395957097540554
0.31574411787417267,0.05672611756733034,0.3370048003468945,-1.0761300246959313,-0.022437668293747073,-0.05462464294237847
0.30372301631817056,0.039786034119898415,0.3962572889908874,-1.0756552278532843,-0.022437668293747073,-0.054790762343818585
0.3004552124143104,0.034335712103010785,0.4380653896016241,-1.0759309637620165,-0.022437668293747073,-0.05481435052003053
0.3364398200916686,0.07180255210509232,0.5846406259386566,-1.0992099973952958,-0.022437668293747073,-0.0546180279097271
0.32633906320908074,0.06541038175915441,0.4486418222948436,-1.085332037510827,-0.022437668293747073,-0.05456433818181918
0.31097960591382806,0.051484183345000774,0.3645338256250681,-1.0730629033756152,-0.022437668293747073,-0.05458203519310796
0.2994945312152425,0.04635721532943833,0.459201015037804,-1.0846455152694987,-0.022437668293747073,-0.05487026498470851
0.32038658612792603,0.07153280918322129,0.5822724155497864,-1.1023387774189388,-0.022437668293747073,-0.05479320267037056
0.33182387315647116,0.07955789091659363,0.4561882933793928,-1.090261314683991,-0.022437668293747073,-0.05443398192393195
0.30473638099589156,0.04790370119984428,0.31146455719906485,-1.07091572583732,-0.022437668293747073,-0.05464686310888122
0.30279490008431065,0.038329874730690376,0.3715401756820532,-1.0750133233187975,-0.022437668293747073,-0.0549192608248917
0.3149215719502717,0.04936811215487894,0.36783532501079613,-1.0781735119074178,-0.022437668293747073,-0.05482766630318348
0.33734637544743984,0.0668153437855952,0.33003824296790085,-1.074512941107622,-0.022437668293747073,-0.054565340909081245
0.31763950097345567,0.0430325745759309,0.2929589628766959,-1.0643497941722178,-0.022437668293747073,-0.054754021336579695
0.31005996489189747,0.038158984523567085,0.4819124979834191,-1.0847014059302036,-0.022437668293747073,-0.05512278062905423
0.3151966372477412,0.050627626864391775,0.5360221787892341,-1.095481848944159,-0.022437668293747073,-0.055143737451685985
0.3249393417866419,0.0652339133646157,0.40866087021700204,-1.0849346968560265,-0.022437668293747073,-0.0548732375256919
0.31736509287495707,0.059983660861440045,0.17212528909234334,-1.0614867761747693,-0.022437668293747073,-0.05464972912977478
0.3063509077755368,0.05931420814820407,0.06703851710100649,-1.055747853461761,-0.022437668293747073,-0.054722442098099844
0.3047482346635993,0.0596820592543336,0.04563354084093557,-1.0549158586503713,-0.022437668293747073,-0.05476907582315932
0.3185950176377711,0.06720898991862756,0.10377786526215191,-1.0595200280903405,-0.022437668293747073,-0.054528549767236534
0.31003161296234216,0.04946447992128956,0.12113818217864006,-1.0563906948109376,-0.022437668293747073,-0.05479119054210098
0.300086570830081,0.03543230553211702,0.07825483683230117,-1.048183045622698,-0.022437668293747073,-0.054997012354004296
0.31225339726826556,0.03682938670572262,0.09043067730999355,-1.047362931268146,-0.022437668293747073,-0.05490970898996869
0.34512644200350134,0.06376698315798604,0.23514356331975367,-1.064757011228745,-0.022437668293747073,-0.0546463090208393
0.34544472218419653,0.05949955490681065,0.3665918786660111,-1.0782273917397973,-0.022437668293747073,-0.05489256265826058
0.3297863908457961,0.04158700358658823,0.2671074414886401,-1.0633826538411315,-0.022437668293747073,-0.05472431116339955
0.3395985120830716,0.050202954054994774,0.28120417661449004,-1.0661354618248173,-0.022437668293747073,-0.05452156077586843
0.326247632746483,0.04360890257358364,0.31124935311567276,-1.0708246880068966,-0.022437668293747073,-0.05487862753597591
0.3187035496698393,0.04508967580045065,0.357650305112708,-1.0783558390300516,-0.022437668293747073,-0.05515184740204308
0.31455435033740803,0.050298539540963826,0.3427528286681783,-1.0800570735491792,-0.022437668293747073,-0.05505178541877295
0.3305018724798528,0.07173624467189757,0.344063611240112,-1.082184642960439,-0.022437668293747073,-0.05481251135582467
0.3159081126554573,0.05226948175211257,0.4019484655211483,-1.0850664324034163,-0.022437668293747073,-0.055176401725627856
0.30726352698928877,0.028224459402539006,0.2566910195256706,-1.0558961073025843,-0.022437668293747073,-0.05497770698811364
0.3056539823319569,0.02545061948168113,0.23591988420144314,-1.0510229066675638,-0.022437668293747073,-0.054937850668729936
0.3116625067854043,0.035124664959616095,0.22185149170232346,-1.0550843321997427,-0.022437668293747073,-0.05480061545226124
0.3186419917546267,0.054610413247943045,0.4367733743764931,-1.088417483994597,-0.022437668293747073,-0.05518633549904358
0.3227081518113206,0.06109668686386641,0.41344969652915176,-1.086104238399022,-0.022437668293747073,-0.055050815668065356
0.31728329384581927,0.053685927138324395,0.4030358002183824,-1.083892931277621,-0.022437668293747073,-0.05501298136234387
0.31005773384964763,0.0451328739395866,0.30834694000039276,-1.070757814645021,-0.022437668293747073,-0.05484321019665294
0.2988555118338316,0.04232813406445486,0.38616695453581407,-1.0822067416132835,-0.022437668293747073,-0.05512445651667421
0.3066741225207577,0.0587847581604404,0.42775882648418223,-1.0908505289639843,-0.022437668293747073,-0.05512127074216726
0.3050453358549835,0.06002022446829591,0.29518369999664046,-1.0794726609590928,-0.022437668293747073,-0.054837207563947145
0.30705622945460587,0.05920787450192142,0.2554947724386203,-1.0746491021876876,-0.022437668293747073,-0.0547463108825349
0.30930272914435875,0.04972235829280941,0.31994708059693594,-1.0753052942925454,-0.022437668293747073,-0.054807890809540544
0.3037564080087956,0.03467277843186416,0.2605560016593532,-1.0612679714157935,-0.022437668293747073,-0.05492702198468918
0.3069127343875437,0.037357588170142786,0.16387328091550252,-1.0504304740937447,-0.022437668293747073,-0.05475046787209051
0.3125189468330599,0.044942805898887356,0.32310238766613936,-1.0704683470431748,-0.022437668293747073,-0.05490318206136319
0.314729558175317,0.05225609988407421,0.5449303487383991,-1.0956425292845333,-0.022437668293747073,-0.05509078040529259
0.3054449527448069,0.047657978514171556,0.6019183402542343,-1.1014629477581308,-0.022437668293747073,-0.05523798336295119
0.30973191092165925,0.053173007363452304,0.6784579182143817,-1.109040618440822,-0.022437668293747073,-0.055336774344539756
0.3093322547344206,0.053725483445794024,0.5087627620046725,-1.0918798021540834,-0.022437668293747073,-0.055156821123973895
0.295629972833848,0.03608458643822372,0.2502543097126133,-1.0603021175564191,-0.022437668293747073,-0.055012078875903994
0.3019605542695541,0.03228063298793625,0.16388936587968045,-1.0450060512020911,-0.022437668293747073,-0.05483325383644453
0.3197407690295553,0.042367196413618066,0.5175424701495764,-1.0853113092573354,-0.022437668293747073,-0.05527011201160173
0.30961910563095485,0.03209552287717398,0.571078165378371,-1.0902274899554487,-0.022437668293747073,-0.05552757022304881
0.2986281283896177,0.021496668957902153,0.33639789573002027,-1.0624200315469476,-0.022437668293747073,-0.055267373506814724
0.306361204179307,0.02863141501483615,0.21279061648865397,-1.050983633066226,-0.022437668293747073,-0.05493779181037827
0.3095688883269084,0.0416091671064688,0.2098118325670551,-1.0615078664764868,-0.022437668293747073,-0.05500755379057692
0.29902126824163683,0.04210205835923562,0.18012194899668266,-1.0637813500550974,-0.022437668293747073,-0.055226879194590524
0.3130636032497789,0.055838879443102674,0.18407407740957069,-1.0650806991341335,-0.022437668293747073,-0.055027020231724774
0.31220969551802563,0.05226290516412695,0.2504835528798231,-1.0697476203355887,-0.022437668293747073,-0.0550812570914334
0.295021130882461,0.04338305597381678,0.24876664364960394,-1.0708707124613581,-0.022437668293747073,-0.05517490250489081
0.2821746524447209,0.037407577975061314,0.2905518458174635,-1.075989000473182,-0.022437668293747073,-0.055352902681334214
0.296047444644791,0.0458169080017141,0.3637477369358076,-1.0808578911251923,-0.022437668293747073,-0.055211377283415713
0.29442661649564517,0.04186278477739231,0.2608084167548652,-1.0672925645193125,-0.022437668293747073,-0.05501056016576459
0.2960267645568193,0.050367192868379276,0.2512765102024637,-1.070519152094586,-0.022437668293747073,-0.054974290745454624
0.28268208018055385,0.03642896042662429,0.1724165473691333,-1.058983025443424,-0.022437668293747073,-0.05510065431827655
0.28208992185052256,0.02944276141003854,0.3364923994506969,-1.0718996713035291,-0.022437668293747073,-0.055332971576995064
0.28944312137023986,0.03512721882270474,0.407599064717153,-1.0795526919817575,-0.022437668293747073,-0.05523100306482664
0.29652835857986415,0.05021866104062956,0.47090527573817986,-1.092326942022129,-0.022437668293747073,-0.05528184170060944
0.28754252938968256,0.04389911612671853,0.40819295116706866,-1.0869254961590524,-0.022437668293747073,-0.055396711148336726
0.294193584617371,0.03547121073836052,0.37771331727203683,-1.077258406210467,-0.022437668293747073,-0.0552781903162066
0.3115404451898734,0.04738698309940756,0.3471646617141657,-1.075105141076271,-0.022437668293747073,-0.05500187180627014
0.30300202624332706,0.0432963757956208,0.36185140130272975,-1.0803583748560035,-0.022437668293747073,-0.0552492853644128
0.3042929467806517,0.046899384325966534,0.4426034886554758,-1.0900838752008646,-0.022437668293747073,-0.05552050922370931
0.30308793770628956,0.02948044174019259,0.4168237603708287,-1.082005879940023,-0.022437668293747073,-0.055504021628919764
0.31227815525697855,0.035756110101719925,0.2633825243647428,-1.0667152100318384,-0.022437668293747073,-0.05522778518370155
0.28657992986454844,0.010727062901746603,0.10086812392632973,-1.0408096332234589,-0.022437668293747073,-0.05539602561705376
0.29336182209641865,0.018911473639932324,0.30084657033153284,-1.0682191303648043,-0.022437668293747073,-0.05556855381574622
0.29688968021439094,0.02110692101567592,0.3955706965856352,-1.078816379250921,-0.022437668293747073,-0.05561155616720806
0.30323145130678614,0.032916759740570144,0.2980512729950144,-1.072803600325662,-0.022437668293747073,-0.05543057001650912
0.28560632130894553,0.024774179837220144,0.17384777387939732,-1.0626961505314723,-0.022437668293747073,-0.05552423973191586
0.29565490505371117,0.03684913011273823,0.26827241550774455,-1.0739231048298887,-0.022437668293747073,-0.05551106604303272
0.308509585497712,0.05241680960011219,0.3943202696285184,-1.0876324177997982,-0.022437668293747073,-0.055502269059993774
0.3066076390835971,0.0494377689202197,0.3503049373042445,-1.0826411979432957,-0.022437668293747073,-0.05546285179648081
0.2795109224725537,0.022135141196961892,0.1360481620508394,-1.0564526266608085,-0.022437668293747073,-0.05544176976552254
0.28092330470978366,0.015103221336815643,0.11252696629792709,-1.0460744047167385,-0.022437668293747073,-0.055365128518140905
0.3043277286072991,0.035507303169036504,0.3508565029816423,-1.0761608479782037,-0.022437668293747073,-0.05535591590079094
0.3012933943123758,0.036612583871516516,0.3228002771804304,-1.0750959226853836,-0.022437668293747073,-0.05543131128274186
0.2817755238040794,0.02415695847787939,0.21045343561419708,-1.0629412926567736,-0.022437668293747073,-0.055468213099222945
0.27432325765854226,0.017173015959245856,0.3432296150569851,-1.0744972211955433,-0.022437668293747073,-0.05570287107425697
0.28756662223149515,0.03177184351741736,0.48915412623940857,-1.0914610255360115,-0.022437668293747073,-0.05566605816701741
0.28899454631259647,0.03160893247434848,0.4848646887194363,-1.0888852308183026,-0.022437668293747073,-0.05551457461517265
0.28323720007687175,0.02614008976431825,0.5764540380670845,-1.0961879544155344,-0.022437668293747073,-0.055559632172460925
0.28744833781286494,0.03332122411951167,0.5772531115741449,-1.0986655223695976,-0.022437668293747073,-0.05553015177805773
0.26894143860330616,0.020377767658570144,0.2025691382228879,-1.058612076335863,-0.022437668293747073,-0.05536747773988808
0.27273764278316937,0.02397298120702957,0.06070204682452833,-1.0474148628993762,-0.022437668293747073,-0.055326037763187584
0.2721232271733308,0.015743076196321207,0.31479700549950096,-1.072542021742009,-0.022437668293747073,-0.055802096697805864
0.29222215785146655,0.032401177822923045,0.5028806075286629,-1.092814911875024,-0.022437668293747073,-0.05577417541268393
0.2792815606099592,0.020368155060223426,0.48565552901428427,-1.0904298458345596,-0.022437668293747073,-0.05586586362619971
0.2787917886442239,0.033635922303447606,0.313204368506943,-1.0801603410254847,-0.022437668293747073,-0.0556121708193277
0.27210335907946415,0.029844799150351636,0.22728244597565322,-1.0722288921961363,-0.022437668293747073,-0.05561903649834887
0.27212495732660197,0.02841051429562226,0.13645321423706216,-1.0619842022048025,-0.022437668293747073,-0.055510923597360186
0.2747344735714812,0.028710178323795688,0.16935768395675593,-1.0651921609191943,-0.022437668293747073,-0.055637494590396665
0.27159552416055627,0.02826611807479378,0.1628434963609021,-1.0663152716199775,-0.022437668293747073,-0.05566313704112032
0.28252325253268534,0.02894305700340078,0.27495858310111687,-1.0739534134353672,-0.022437668293747073,-0.05568941888911376
0.2930961420617196,0.03054599404203774,0.32871116780766463,-1.076443197337567,-0.022437668293747073,-0.05565455150890416
0.28356928473321646,0.01166226214362891,0.22936513762648347,-1.0574626013412403,-0.022437668293747073,-0.05562530928512919
0.26545018775929174,0.0005731482134065124,0.04629888579186818,-1.0352039757957152,-0.022437668293747073,-0.05557183612256862
0.27415365720718815,0.019578229132759598,0.274332709515726,-1.0743001311918854,-0.022437668293747073,-0.055707705621177404
0.2878345239512842,0.04128637681829969,0.386217486464743,-1.0894598018660677,-0.022437668293747073,-0.05576427661528885
0.2799612984227495,0.02726024827695657,0.3213393291678032,-1.0779868300561948,-0.022437668293747073,-0.05578949493830744
0.2740036751743465,0.017939853319210126,0.30359158463135677,-1.0727720088632544,-0.022437668293747073,-0.05580764397580717
0.26227332097078315,0.005347532363131272,0.21068079889321586,-1.0581492053137058,-0.022437668293747073,-0.05584760690504552
0.25916694894357023,0.00781930191170364,0.1826696203215301,-1.0571140879349354,-0.022437668293747073,-0.05583726280396954
0.2779186928048312,0.029903097356824983,0.26056096913210064,-1.0701456334148751,-0.022437668293747073,-0.05564494209757459
0.29800657588374346,0.04444921369845501,0.4290934431028938,-1.085929909702356,-0.022437668293747073,-0.055443155908770914
0.26260838852117485,-0.000587886312814396,0.33954571956697815,-1.0620096690960799,-0.022437668293747073,-0.05586019695335047
0.24428721918140314,-0.020202096929047095,0.2260383016948967,-1.0400540366172932,-0.022437668293747073,-0.056063192775188044
0.2579933381690472,-4.3301281420081484e-05,0.4430954152242239,-1.0806803017014965,-0.022437668293747073,-0.056201517092884665
0.2881077791082414,0.041994358882339135,0.42255770670517806,-1.0883561379072755,-0.022437668293747073,-0.055738686364301
0.27391944440621324,0.030501534446187584,0.33641130924459,-1.0808742276750642,-0.022437668293747073,-0.055790852745784617
0.2637531263180976,0.01533229854881146,0.46353246574551277,-1.0903265266515925,-0.022437668293747073,-0.056081533710737826
0.2627288729693918,0.01469085375437591,0.5067113056357815,-1.0952911406092698,-0.022437668293747073,-0.0561652942482435
0.2633867430357271,0.02287308075119734,0.2824104749104452,-1.0777981228640274,-0.022437668293747073,-0.05580565518892658
0.2577676625278661,0.018760308106393418,-0.0071935332535310705,-1.047454902656462,-0.022437668293747073,-0.055543557416763464
0.25392558118086145,0.011582342118869552,-0.049061613184784726,-1.0403647606002486,-0.022437668293747073,-0.0556837561652316
0.2569043712170893,0.014285714299688248,0.005101197008525096,-1.047762908479981,-0.022437668293747073,-0.055844722182252296
0.2645007688462925,0.017818429005192243,0.1367902107481453,-1.0613151046044216,-0.022437668293747073,-0.05590682931737226
0.27483005810393585,0.01585970975363618,0.3238199735473898,-1.0765874481447566,-0.022437668293747073,-0.05604507544296296
0.26727868354899026,0.0017553226703919509,0.3988022272069698,-1.0815247932019216,-0.022437668293747073,-0.056261658181959114
0.2540720312712989,-0.0037119195454894225,0.18573068668140105,-1.06404022101121,-0.022437668293747073,-0.05623468542891943
0.27173258607880313,0.014421400985901885,0.1542501787468375,-1.0656578062221203,-0.022437668293747073,-0.05604123096202641
0.2781609607238221,0.015905915972597946,0.12474866243017788,-1.0608947917576759,-0.022437668293747073,-0.05593052562217424
0.27747964037380124,0.007101977571573327,0.2023413452104889,-1.0632009730259993,-0.022437668293747073,-0.056027064358118064
0.2666338336340205,-0.0014857162428492789,0.1756239692922977,-1.0602786116328897,-0.022437668293747073,-0.05615272797816435
0.2727079517783079,0.0017331659978162164,0.3297178393426592,-1.0748373848714654,-0.022437668293747073,-0.05623641485769794
0.2518410269766587,-0.016636716360497454,0.4624509798974134,-1.0856994183185107,-0.022437668293747073,-0.056575723373456815
0.24870078725614828,-0.019267812736648928,0.5980285797560536,-1.0980103006159136,-0.022437668293747073,-0.05669799780026311
0.2544435300452278,-0.006987466146591968,0.601173086968218,-1.1028408623301815,-0.022437668293747073,-0.05668469164630497
0.26885045160963356,0.014512598723263789,0.49637393993239737,-1.0952517917057092,-0.022437668293747073,-0.05641620591134506
0.25929731543752416,0.005618869379295841,0.42759911727892297,-1.0891846771988176,-0.022437668293747073,-0.05636186547210238
0.2500222748731484,-0.0074779837035780705,0.24171723839008882,-1.0628936379048861,-0.022437668293747073,-0.05619998487558839
0.24466507590903191,-0.012844721571644204,0.15303547099662324,-1.0488166147097198,-0.022437668293747073,-0.05613963720305936
0.25153376956721496,0.0007777740942557462,0.32694487241669834,-1.075560611454698,-0.022437668293747073,-0.056262196447813335
0.24264864430799452,-0.004404763560609071,0.5123997981686544,-1.0951635538393092,-0.022437668293747073,-0.05660760805662684
0.23586623199273846,-0.006202959530681321,0.37240384021638206,-1.0825924315758302,-0.022437668293747073,-0.05657279395927033
0.23204485701514874,-0.003636494336507666,0.07901804246652097,-1.0554278677913886,-0.022437668293747073,-0.056264753462151935
0.2409880609474122,0.007069760092730925,0.13929914140253452,-1.065645414512488,-0.022437668293747073,-0.05626254743986667
0.2617354423483656,0.010471124615540643,0.3544510785987561,-1.0814845691226407,-0.022437668293747073,-0.05636056972527948
0.27825021258,0.013071215916224213,0.3678713654584399,-1.0779392822160507,-0.022437668293747073,-0.056232051022547205
0.2814462650791129,0.015237032219184259,0.16313237634303157,-1.058339457038406,-0.022437668293747073,-0.05603046979640421
0.25396273789984697,-0.004658710332040104,-0.08751813764764538,-1.0341429153439354,-0.022437668293747073,-0.05621624953588175
0.22217575229690256,-0.037822327261356335,-0.3911469178126809,-0.9825385012994601,-0.022437668293747073,-0.05640327610043607
0.23998095211668127,-0.025367115261047898,-0.0442978215402971,-1.0267897681165574,-0.022437668293747073,-0.05643146781907457
0.27581749365986946,0.0010369335754898395,0.2962501763481297,-1.0668255904116808,-0.022437668293747073,-0.05624744603847394
0.27844249718501757,0.004094958754825101,0.48462847097813355,-1.0867342847912282,-0.022437668293747073,-0.056409973154503884
0.2437921565102773,-0.022598371029720732,0.43051012714238196,-1.0795724560188062,-0.022437668293747073,-0.056751262937187984
0.24043084848044843,-0.009403873528653418,0.4095705540318943,-1.0879846912217281,-0.022437668293747073,-0.056858204018507
0.2714801379535927,0.019439837910931512,0.3394587735508311,-1.0805309229565934,-0.022437668293747073,-0.05647913823533108
0.26266998644629047,-0.0053084976917192415,0.3013638274126339,-1.0686733153670065,-0.022437668293747073,-0.056429372069863655
0.24312456904249952,-0.030489476523097414,0.19339512759434677,-1.0428478116371414,-0.022437668293747073,-0.056532484582162465
0.2303082453125127,-0.027543298208890968,0.18401676053779353,-1.0539846336787735,-0.022437668293747073,-0.056665994154116606
0.26230238352765417,0.015653474357481763,0.2522054623370045,-1.07236155066559,-0.022437668293747073,-0.05646867663954567
0.2481029591691224,-0.010200182058558355,0.14596722984097485,-1.0541134660876943,-0.022437668293747073,-0.05642305760206746
0.24653551383093408,-0.017856570300197,0.2780018535075919,-1.0623663861418828,-0.022437668293747073,-0.056560508571731775
0.23913513260827574,-0.019887942428398763,0.21629438101958837,-1.057426235511745,-0.022437668293747073,-0.056578055546554006
0.23379467176938268,-0.01850025329099238,0.12359133591361186,-1.0515326313066005,-0.022437668293747073,-0.056561510656398674
0.2290432624255489,-0.02814430850035818,0.2030106133144334,-1.0530209087535902,-0.022437668293747073,-0.05659819190288169
0.24064845690432649,-0.013596274494868183,0.4383716882510116,-1.0862962576152668,-0.022437668293747073,-0.0567021570148855
0.25331085402444525,0.00037634164550259466,0.4617058007586537,-1.0912503451681046,-0.022437668293747073,-0.056629484985527355
0.2362481691932359,-0.01992195348184634,0.4739111322970129,-1.0897739897784877,-0.022437668293747073,-0.05690810665014454
0.24607025284178963,-0.021569908603102005,0.6274804463068409,-1.0998803436638165,-0.022437668293747073,-0.056986507400343354
0.2451361584155663,-0.01991402650881254,0.47783944417571783,-1.0877334066687898,-0.022437668293747073,-0.05691890540674014
0.25343290773993593,-0.016205789997156415,0.19931785269263627,-1.0569673384552465,-0.022437668293747073,-0.05653867504645746
0.24167981921175166,-0.027262194243330203,-0.04181535209116063,-1.0253495161618462,-0.022437668293747073,-0.05646529811214462
0.2457852518307892,-0.02024387208120063,0.20864229997472833,-1.0579377917340382,-0.022437668293747073,-0.05663761509463381
0.24437496479762894,-0.010639177189337715,0.5622906287561341,-1.0990627292764752,-0.022437668293747073,-0.05702728707190436
0.2386651896009241,-0.018944929990788863,0.6064476860275871,-1.1007934437135711,-0.022437668293747073,-0.05703604385106285
0.2300251866093988,-0.02677957447511453,0.34887621891177417,-1.0730194902788246,-0.022437668293747073,-0.056890363229372076
0.2195993807193301,-0.031159334910463153,0.1061375385039082,-1.0501881359442506,-0.022437668293747073,-0.0568400821893576
0.22694553734837214,-0.023185698877159665,0.1831252721143599,-1.0639074199453502,-0.022437668293747073,-0.05688297958452019
0.23226304240866305,-0.02426724042259579,0.14358234918916996,-1.0585265833634097,-0.022437668293747073,-0.056839639018277724
0.25254123348249724,-0.009525786081074648,0.2180846407105887,-1.0669595270986132,-0.022437668293747073,-0.056844199996494336
0.23796584407564206,-0.03610312928074277,0.07153543738730916,-1.0426290407368584,-0.022437668293747073,-0.056928569656833294
0.2249576340390195,-0.05452364343628778,-0.1661485151168716,-1.0002134872638786,-0.022437668293747073,-0.05690701263825355
0.23476522295267171,-0.04426746978828929,0.023726584413949894,-1.031789315878899,-0.022437668293747073,-0.05694849014011381
0.2567354839276249,-0.011639771492410727,0.36993548728126585,-1.080598625050943,-0.022437668293747073,-0.05702944978053867
0.2371815467103075,-0.02484627262282659,0.4498484808070434,-1.0900352866233356,-0.022437668293747073,-0.05720751907983994
0.2268298331109352,-0.03354856333915613,0.4841918057875974,-1.0917859394575513,-0.022437668293747073,-0.057303215421128866
0.22457036265041058,-0.03426806956440704,0.39971737145106473,-1.0838504348755778,-0.022437668293747073,-0.057260566201513444
0.20874438266712214,-0.049673783294334306,0.22458859319211302,-1.0607039447714053,-0.022437668293747073,-0.05725276705963797
0.19725763388465373,-0.06090775058795189,0.21469997054716786,-1.0560089512886708,-0.022437668293747073,-0.05740236629996059
0.2359358782012821,-0.03402361570013958,0.4666912237294215,-1.084801647025201,-0.022437668293747073,-0.057234120705978386
0.2546626931719421,-0.02632251995730588,0.4240084117390221,-1.0756268402299334,-0.022437668293747073,-0.05697737297925281
0.2418636035488483,-0.038215368248300345,0.42808364401105936,-1.075364761121149,-0.022437668293747073,-0.057138746254092654
0.2200676938344785,-0.05311224802608373,0.42224072824677783,-1.0738059208932995,-0.022437668293747073,-0.05731614721847186
0.21741963754761628,-0.045639901582345536,0.48939238103951616,-1.0903877762800498,-0.022437668293747073,-0.057394597561893926
0.21562411203859996,-0.04565255400091844,0.49365861651117526,-1.091253145127812,-0.022437668293747073,-0.05742147627533725
0.21706080908705855,-0.035328925021566,0.5591060813284808,-1.1024203051926442,-0.022437668293747073,-0.05748883976465342
0.21530429990506295,-0.035586249221243205,0.353834667046001,-1.0835674948268765,-0.022437668293747073,-0.05729581911071504
0.21322157147554316,-0.04182069577320757,0.09716983215614448,-1.0527120073927552,-0.022437668293747073,-0.05712130454047106
0.21862669493074216,-0.03919572487177148,0.03111238989643287,-1.0456600823634954,-0.022437668293747073,-0.05711131784599362
0.2206042858911619,-0.03358295592565171,0.03608153180136999,-1.0503352190259199,-0.022437668293747073,-0.05712107966142421
0.21699850208662255,-0.03908850795755309,0.04068730286952299,-1.0497695268515808,-0.022437668293747073,-0.05718592001717731
0.22465133697063827,-0.041904356907253984,0.17098963425170755,-1.056052091869948,-0.022437668293747073,-0.05714689183903278
0.2268500193463357,-0.03910981929551218,0.43177224027104877,-1.0845725104819472,-0.022437668293747073,-0.05727734967394331
0.20719164033068685,-0.05016944949807737,0.46855673057338415,-1.0908228350773361,-0.022437668293747073,-0.057507355966033374
0.19702157182376706,-0.05047880386382524,0.4031555912448577,-1.089847182171622,-0.022437668293747073,-0.05755744282339931
0.199420882042022,-0.05222337897638727,0.35643524854126063,-1.0826835329789595,-0.022437668293747073,-0.05754859749510433
0.21139147134489744,-0.04123046779900012,0.3119675807324077,-1.0791654171614262,-0.022437668293747073,-0.057529097898846505
0.2088609189207755,-0.05855385903748455,-0.017566169527662278,-1.031419420849657,-0.022437668293747073,-0.057314277507761316
0.21830188458147098,-0.05294143193029815,-0.06575118826429524,-1.023687602919012,-0.022437668293747073,-0.057115786265700026
0.21563966227787681,-0.055228246641966953,0.1616274997072293,-1.0540078741230905,-0.022437668293747073,-0.05738756628457335
0.21870236827986794,-0.041400884893444255,0.3353284939045178,-1.0797845860736932,-0.022437668293747073,-0.05764580721492137
0.2242978409720052,-0.04328657439609546,0.32131084786214187,-1.0733967507694382,-0.022437668293747073,-0.05760509352676272
0.2051844978522071,-0.06158338065384078,0.12730472857113848,-1.0514943772022318,-0.022437668293747073,-0.057546845724632555
0.2003262885155485,-0.06254014592040331,0.10297200007798751,-1.0486821596662952,-0.022437668293747073,-0.05753531619682282
